scansci Spectrometer Data File
--- Measurement Setting ---
Type: Sample Spectrum
Date: Mon Oct 16 15:34:21 2023
User: (Reserved by scansci)
Serial: (Reserved by scansci)
Channel: No. 11
Integration Time: 1
Average: 10
Boxcar: 2
Electrical Dark: No-corrected
Time Normalize: (Reserved by scansci)
Dual-beam: (Reserved by scansci)
Reference Ch: (Reserved by scansci)
--- Measurement Data ---
Pixel   Wavelength   Intensity
    0        162.5        741.1
    1      162.985      742.275
    2      163.469       743.16
    3      163.954        745.2
    4      164.439       746.18
    5      164.923       747.16
    6      165.408       748.22
    7      165.892       749.54
    8      166.377       750.96
    9      166.861       751.68
   10      167.345       751.92
   11       167.83       751.92
   12      168.314       751.24
   13      168.798       750.14
   14      169.282       749.26
   15      169.766       748.44
   16       170.25       747.26
   17      170.734       746.54
   18      171.218       746.48
   19      171.702       746.48
   20      172.185       746.64
   21      172.669       747.46
   22      173.153        748.1
   23      173.636       748.56
   24       174.12       748.96
   25      174.603       748.98
   26      175.087       749.08
   27       175.57       750.32
   28      176.053        751.9
   29      176.537       753.82
   30       177.02        755.5
   31      177.503       756.22
   32      177.986       756.28
   33      178.469        755.6
   34      178.952       754.38
   35      179.435       753.66
   36      179.918       753.12
   37      180.401          752
   38      180.884       750.84
   39      181.366       750.36
   40      181.849       750.12
   41      182.332        750.5
   42      182.814       751.06
   43      183.297       751.92
   44      183.779        752.5
   45      184.262       752.94
   46      184.744       753.12
   47      185.226       753.26
   48      185.708       753.34
   49      186.191       753.64
   50      186.673       754.28
   51      187.155        754.8
   52      187.637       755.04
   53      188.119       754.88
   54        188.6          754
   55      189.082       752.92
   56      189.564       752.22
   57      190.046       752.22
   58      190.527       753.16
   59      191.009       754.44
   60      191.491       755.02
   61      191.972       755.36
   62      192.454       754.92
   63      192.935       754.22
   64      193.416       753.92
   65      193.897       753.86
   66      194.379        753.6
   67       194.86       753.94
   68      195.341       754.34
   69      195.822       754.88
   70      196.303       755.54
   71      196.784        756.2
   72      197.265       756.74
   73      197.746       756.54
   74      198.226        755.5
   75      198.707       754.94
   76      199.188       754.74
   77      199.668       754.54
   78      200.149       754.82
   79      200.629       755.22
   80       201.11       755.02
   81       201.59        754.6
   82       202.07       754.04
   83       202.55       753.86
   84      203.031        754.2
   85      203.511       754.74
   86      203.991       755.22
   87      204.471       755.84
   88      204.951       755.84
   89      205.431        755.2
   90       205.91       754.56
   91       206.39       753.88
   92       206.87        753.4
   93      207.349        753.9
   94      207.829       755.16
   95      208.309       756.92
   96      208.788       758.94
   97      209.267       759.98
   98      209.747        759.9
   99      210.226       759.62
  100      210.705       758.66
  101      211.185       757.44
  102      211.664        757.3
  103      212.143       757.52
  104      212.622       757.48
  105      213.101       757.72
  106      213.579          758
  107      214.058       757.72
  108      214.537       757.16
  109      215.016        756.9
  110      215.494       757.28
  111      215.973       757.34
  112      216.452       756.94
  113       216.93       756.58
  114      217.408       755.84
  115      217.887       754.84
  116      218.365       754.72
  117      218.843       754.88
  118      219.321        755.1
  119      219.799       756.04
  120      220.278       756.82
  121      220.755        757.1
  122      221.233       757.82
  123      221.711       758.66
  124      222.189       758.84
  125      222.667          759
  126      223.144       759.46
  127      223.622       760.04
  128        224.1       760.74
  129      224.577       761.48
  130      225.055       761.76
  131      225.532       761.72
  132      226.009       761.28
  133      226.486       760.64
  134      226.964        759.7
  135      227.441       759.38
  136      227.918       759.06
  137      228.395        759.2
  138      228.872       759.72
  139      229.349       760.76
  140      229.826       761.24
  141      230.302       761.42
  142      230.779        761.3
  143      231.256       761.06
  144      231.732       760.34
  145      232.209       759.72
  146      232.685        759.2
  147      233.162        758.9
  148      233.638       759.02
  149      234.114       759.68
  150       234.59       760.88
  151      235.066       762.44
  152      235.543       763.28
  153      236.019       763.12
  154      236.495       763.16
  155       236.97       763.14
  156      237.446       762.68
  157      237.922        762.3
  158      238.398       762.26
  159      238.873       761.96
  160      239.349       761.58
  161      239.824        761.2
  162        240.3       760.94
  163      240.775       761.04
  164      241.251       761.24
  165      241.726        761.4
  166      242.201        761.5
  167      242.676        761.4
  168      243.151       760.68
  169      243.626       759.56
  170      244.101       758.54
  171      244.576       758.12
  172      245.051       758.12
  173      245.526       758.54
  174          246        759.3
  175      246.475       759.96
  176       246.95       760.46
  177      247.424        760.5
  178      247.899        760.1
  179      248.373        759.7
  180      248.847       759.72
  181      249.321       760.02
  182      249.796        760.4
  183       250.27       760.44
  184      250.744       760.34
  185      251.218       760.26
  186      251.692          760
  187      252.166        759.6
  188      252.639       759.76
  189      253.113        760.4
  190      253.587        760.7
  191       254.06       760.88
  192      254.534       761.32
  193      255.007       761.44
  194      255.481       760.98
  195      255.954       760.52
  196      256.427       760.24
  197      256.901       760.44
  198      257.374       761.68
  199      257.847       762.58
  200       258.32        762.6
  201      258.793        762.6
  202      259.266        762.6
  203      259.739        762.2
  204      260.211       762.14
  205      260.684       763.18
  206      261.157       764.14
  207      261.629       764.68
  208      262.102       764.86
  209      262.574       764.84
  210      263.046       764.68
  211      263.519       764.34
  212      263.991        763.8
  213      264.463       763.34
  214      264.935        763.5
  215      265.407       763.62
  216      265.879       763.94
  217      266.351       764.16
  218      266.823       764.76
  219      267.295       765.08
  220      267.766       764.82
  221      268.238        764.3
  222       268.71        764.4
  223      269.181       764.96
  224      269.653       765.62
  225      270.124       766.04
  226      270.595       766.52
  227      271.066       766.84
  228      271.538       766.26
  229      272.009       765.44
  230       272.48       764.86
  231      272.951       763.98
  232      273.422       763.44
  233      273.892       763.52
  234      274.363       763.56
  235      274.834       763.64
  236      275.305       764.38
  237      275.775       764.92
  238      276.246        764.7
  239      276.716       764.78
  240      277.186       765.34
  241      277.657       765.72
  242      278.127        765.8
  243      278.597       766.28
  244      279.067       766.44
  245      279.537       766.34
  246      280.007        766.2
  247      280.477        766.4
  248      280.947       766.42
  249      281.417        766.5
  250      281.886       766.34
  251      282.356       765.52
  252      282.825       764.68
  253      283.295       763.84
  254      283.764       762.44
  255      284.234       761.76
  256      284.703       761.92
  257      285.172       761.44
  258      285.641       761.18
  259       286.11       761.78
  260      286.579       762.38
  261      287.048       763.06
  262      287.517        763.5
  263      287.986       763.28
  264      288.454       762.66
  265      288.923       762.36
  266      289.392       762.24
  267       289.86        762.7
  268      290.329       763.74
  269      290.797       765.14
  270      291.265       765.72
  271      291.734       765.78
  272      292.202        765.6
  273       292.67       765.02
  274      293.138          765
  275      293.606       765.04
  276      294.074        764.6
  277      294.541        764.4
  278      295.009       764.86
  279      295.477       765.48
  280      295.944       766.34
  281      296.412       767.58
  282      296.879       768.46
  283      297.347       768.58
  284      297.814       768.18
  285      298.281       767.54
  286      298.749       766.64
  287      299.216       765.78
  288      299.683       765.76
  289       300.15       765.78
  290      300.616       765.54
  291      301.083       765.72
  292       301.55       766.42
  293      302.017        766.6
  294      302.483       765.68
  295       302.95       764.96
  296      303.416       764.02
  297      303.883       762.98
  298      304.349       762.14
  299      304.815       762.04
  300      305.281       762.14
  301      305.748       762.28
  302      306.214       762.86
  303       306.68       763.92
  304      307.146       764.72
  305      307.611        764.6
  306      308.077       764.58
  307      308.543        764.7
  308      309.008       764.58
  309      309.474       763.94
  310      309.939       763.52
  311      310.405       763.14
  312       310.87       762.62
  313      311.335       762.26
  314        311.8        762.7
  315      312.266       763.26
  316      312.731       763.86
  317      313.196       764.18
  318       313.66       763.42
  319      314.125       762.84
  320       314.59       763.06
  321      315.055       763.54
  322      315.519       764.28
  323      315.984       765.62
  324      316.448        766.8
  325      316.913       767.78
  326      317.377       768.34
  327      317.841       768.62
  328      318.305       768.98
  329      318.769       769.12
  330      319.233       768.82
  331      319.697       768.56
  332      320.161       768.08
  333      320.625       767.44
  334      321.089       767.14
  335      321.552       767.16
  336      322.016       767.62
  337      322.479       768.34
  338      322.943       768.72
  339      323.406        768.7
  340      323.869       768.56
  341      324.333       767.38
  342      324.796       765.88
  343      325.259       765.28
  344      325.722       765.02
  345      326.185       764.82
  346      326.647        764.9
  347       327.11       764.54
  348      327.573       764.34
  349      328.035       764.28
  350      328.498       764.04
  351       328.96       763.96
  352      329.423       764.24
  353      329.885       764.08
  354      330.347       764.18
  355       330.81       764.92
  356      331.272       765.28
  357      331.734          765
  358      332.196        764.8
  359      332.657       764.28
  360      333.119       763.28
  361      333.581       763.46
  362      334.043       764.96
  363      334.504        766.3
  364      334.966        767.4
  365      335.427       768.72
  366      335.888       769.26
  367       336.35       768.64
  368      336.811       767.18
  369      337.272       765.32
  370      337.733       763.38
  371      338.194       762.36
  372      338.655       762.74
  373      339.115       764.06
  374      339.576       766.06
  375      340.037       768.22
  376      340.497       769.18
  377      340.958       769.08
  378      341.418       768.72
  379      341.879       768.48
  380      342.339       768.22
  381      342.799       768.72
  382      343.259       769.54
  383      343.719       769.88
  384      344.179        769.8
  385      344.639       769.56
  386      345.099       768.94
  387      345.559       768.48
  388      346.018       768.32
  389      346.478       768.16
  390      346.937       767.98
  391      347.397       767.58
  392      347.856       767.22
  393      348.315       766.98
  394      348.774       766.52
  395      349.234        766.2
  396      349.693        766.2
  397      350.152       765.74
  398       350.61        765.4
  399      351.069          766
  400      351.528       766.56
  401      351.987       767.18
  402      352.445       768.24
  403      352.904       768.44
  404      353.362       767.62
  405       353.82       766.68
  406      354.279       765.68
  407      354.737       764.42
  408      355.195       764.06
  409      355.653       764.22
  410      356.111        764.4
  411      356.569       764.52
  412      357.027       764.54
  413      357.484       764.74
  414      357.942        764.9
  415      358.399       764.96
  416      358.857       765.66
  417      359.314       766.36
  418      359.772       766.28
  419      360.229       765.56
  420      360.686        764.7
  421      361.143       763.58
  422        361.6       763.08
  423      362.057       763.46
  424      362.514       764.24
  425      362.971       764.86
  426      363.427        765.2
  427      363.884       765.78
  428       364.34       765.96
  429      364.797       766.14
  430      365.253       766.64
  431      365.709       767.48
  432      366.166       767.86
  433      366.622       768.18
  434      367.078       768.66
  435      367.534       768.28
  436       367.99        767.7
  437      368.445       767.34
  438      368.901       767.46
  439      369.357        767.8
  440      369.812       768.78
  441      370.268       769.38
  442      370.723       769.68
  443      371.179       770.02
  444      371.634        770.5
  445      372.089       770.92
  446      372.544       771.38
  447      372.999       771.94
  448      373.454       771.92
  449      373.909       771.32
  450      374.364       771.68
  451      374.818          773
  452      375.273       774.12
  453      375.727       775.04
  454      376.182       775.48
  455      376.636       775.22
  456       377.09       774.22
  457      377.545       773.48
  458      377.999       773.04
  459      378.453       772.94
  460      378.907       772.82
  461      379.361       772.32
  462      379.814       771.46
  463      380.268       770.86
  464      380.722        770.7
  465      381.175       770.62
  466      381.629       770.54
  467      382.082        770.1
  468      382.535       769.94
  469      382.989       770.16
  470      383.442       769.78
  471      383.895       769.52
  472      384.348       770.72
  473      384.801       772.04
  474      385.253       773.12
  475      385.706       774.76
  476      386.159       776.52
  477      386.611        776.9
  478      387.064       776.48
  479      387.516       775.58
  480      387.968       774.32
  481      388.421        773.2
  482      388.873       773.24
  483      389.325        773.8
  484      389.777       774.38
  485      390.229          775
  486      390.681        775.4
  487      391.132        775.2
  488      391.584        775.2
  489      392.035       775.96
  490      392.487       776.82
  491      392.938       777.22
  492       393.39        777.7
  493      393.841       778.06
  494      394.292       777.36
  495      394.743       776.92
  496      395.194       777.74
  497      395.645       778.72
  498      396.096       779.66
  499      396.546        781.1
  500      396.997       782.16
  501      397.448       781.72
  502      397.898        781.1
  503      398.349       781.04
  504      398.799       780.96
  505      399.249       780.76
  506      399.699        781.8
  507      400.149       783.16
  508      400.599        783.6
  509      401.049       783.86
  510      401.499       784.36
  511      401.949       784.34
  512      402.398       783.76
  513      402.848       783.26
  514      403.297       782.88
  515      403.747       782.96
  516      404.196       783.46
  517      404.645       784.38
  518      405.094       786.36
  519      405.543       788.86
  520      405.992       790.88
  521      406.441       793.14
  522       406.89       795.98
  523      407.339        798.1
  524      407.787        800.3
  525      408.236       803.68
  526      408.684        806.8
  527      409.132       808.98
  528      409.581       811.08
  529      410.029       813.38
  530      410.477       815.24
  531      410.925       817.08
  532      411.373       819.44
  533      411.821       823.06
  534      412.269       827.86
  535      412.716       833.62
  536      413.164       840.12
  537      413.611          847
  538      414.059       853.48
  539      414.506       859.94
  540      414.953       866.76
  541        415.4       873.76
  542      415.847        881.5
  543      416.294       889.94
  544      416.741       897.98
  545      417.188       906.68
  546      417.635       917.22
  547      418.081        928.9
  548      418.528       941.04
  549      418.974       954.14
  550      419.421       967.06
  551      419.867       979.82
  552      420.313        993.8
  553      420.759       1008.8
  554      421.205      1024.84
  555      421.651      1042.16
  556      422.097       1059.9
  557      422.543      1077.08
  558      422.989       1094.7
  559      423.434       1113.5
  560       423.88       1133.3
  561      424.325      1154.56
  562       424.77      1177.16
  563      425.216      1200.74
  564      425.661       1225.1
  565      426.106      1250.64
  566      426.551      1278.08
  567      426.996      1307.32
  568       427.44      1338.76
  569      427.885      1372.74
  570       428.33       1408.5
  571      428.774      1444.68
  572      429.219       1480.3
  573      429.663      1516.24
  574      430.107         1554
  575      430.551      1592.96
  576      430.996      1632.76
  577       431.44      1676.76
  578      431.883      1723.86
  579      432.327      1772.04
  580      432.771      1821.58
  581      433.215      1872.82
  582      433.658       1924.7
  583      434.102       1977.9
  584      434.545       2030.2
  585      434.988       2083.3
  586      435.431      2138.38
  587      435.875      2193.78
  588      436.318         2254
  589      436.761      2320.68
  590      437.203      2390.42
  591      437.646      2461.66
  592      438.089       2535.4
  593      438.531      2611.58
  594      438.974      2691.08
  595      439.416      2775.44
  596      439.859       2866.5
  597      440.301      2961.92
  598      440.743      3056.48
  599      441.185       3153.8
  600      441.627       3257.1
  601      442.069      3363.04
  602       442.51      3464.78
  603      442.952      3558.74
  604      443.394       3646.4
  605      443.835         3729
  606      444.277       3808.2
  607      444.718      3892.34
  608      445.159      3990.54
  609        445.6      4105.16
  610      446.041      4232.96
  611      446.482      4375.64
  612      446.923      4540.04
  613      447.364       4717.7
  614      447.804      4894.54
  615      448.245      5073.82
  616      448.685       5250.8
  617      449.126      5407.92
  618      449.566      5555.22
  619      450.006      5705.58
  620      450.447      5849.84
  621      450.887      5989.16
  622      451.326      6133.44
  623      451.766      6277.28
  624      452.206      6414.84
  625      452.646      6547.06
  626      453.085       6675.9
  627      453.525      6804.26
  628      453.964      6932.08
  629      454.403       7047.9
  630      454.843      7152.92
  631      455.282      7247.28
  632      455.721      7329.12
  633       456.16       7395.4
  634      456.599      7445.82
  635      457.037      7487.06
  636      457.476      7524.62
  637      457.915      7545.44
  638      458.353      7542.72
  639      458.791      7535.48
  640       459.23      7519.04
  641      459.668      7482.22
  642      460.106       7440.4
  643      460.544      7402.86
  644      460.982      7359.02
  645       461.42      7305.04
  646      461.857      7236.94
  647      462.295      7160.16
  648      462.733         7075
  649       463.17      6972.64
  650      463.607      6861.98
  651      464.045       6760.5
  652      464.482      6661.48
  653      464.919      6562.86
  654      465.356       6471.3
  655      465.793      6386.56
  656       466.23      6308.82
  657      466.666      6236.68
  658      467.103      6170.82
  659      467.539      6108.74
  660      467.976      6047.38
  661      468.412      5979.34
  662      468.848      5904.42
  663      469.284       5827.5
  664       469.72      5757.56
  665      470.156      5692.44
  666      470.592      5632.64
  667      471.028       5581.1
  668      471.464      5528.46
  669      471.899      5473.76
  670      472.335      5419.02
  671       472.77      5362.48
  672      473.205      5304.06
  673      473.641      5249.76
  674      474.076      5197.88
  675      474.511      5146.94
  676      474.946      5101.34
  677       475.38      5056.78
  678      475.815      5006.68
  679       476.25      4955.94
  680      476.684      4908.56
  681      477.119      4859.04
  682      477.553      4810.78
  683      477.987      4769.98
  684      478.421         4733
  685      478.856      4699.52
  686      479.289       4672.1
  687      479.723      4646.58
  688      480.157       4622.6
  689      480.591      4600.56
  690      481.024       4576.8
  691      481.458       4553.4
  692      481.891      4536.66
  693      482.324      4521.48
  694      482.758      4512.14
  695      483.191      4514.96
  696      483.624       4523.1
  697      484.057       4530.6
  698      484.489      4543.52
  699      484.922      4558.44
  700      485.355      4569.34
  701      485.787      4581.02
  702       486.22      4596.68
  703      486.652      4611.78
  704      487.084       4622.6
  705      487.516      4638.42
  706      487.948      4663.84
  707       488.38      4698.62
  708      488.812      4736.84
  709      489.244      4779.72
  710      489.676      4824.18
  711      490.107      4868.36
  712      490.539      4908.52
  713       490.97      4948.54
  714      491.401       4988.9
  715      491.832      5024.82
  716      492.263      5059.38
  717      492.694      5095.32
  718      493.125      5136.48
  719      493.556      5179.86
  720      493.987       5224.1
  721      494.417      5267.46
  722      494.848      5312.56
  723      495.278      5361.98
  724      495.708      5416.98
  725      496.139      5474.18
  726      496.569      5529.88
  727      496.999       5584.1
  728      497.429       5637.7
  729      497.858      5686.12
  730      498.288      5731.74
  731      498.718      5780.84
  732      499.147      5827.14
  733      499.577      5869.38
  734      500.006      5916.98
  735      500.435      5963.72
  736      500.864       6000.6
  737      501.293      6040.08
  738      501.722      6080.12
  739      502.151      6117.28
  740       502.58      6162.08
  741      503.008      6211.34
  742      503.437      6255.82
  743      503.865      6297.16
  744      504.293      6334.74
  745      504.722      6365.76
  746       505.15       6394.6
  747      505.578      6423.36
  748      506.006      6451.44
  749      506.434      6483.72
  750      506.861      6525.82
  751      507.289      6573.46
  752      507.716      6618.16
  753      508.144      6658.42
  754      508.571      6691.38
  755      508.998      6716.46
  756      509.425      6742.68
  757      509.852      6776.16
  758      510.279      6810.22
  759      510.706      6842.84
  760      511.133       6876.4
  761       511.56      6907.02
  762      511.986      6933.74
  763      512.412      6964.52
  764      512.839      6995.42
  765      513.265      7019.92
  766      513.691      7043.04
  767      514.117      7064.52
  768      514.543      7087.08
  769      514.969      7119.46
  770      515.395      7154.84
  771       515.82      7183.44
  772      516.246      7208.02
  773      516.671      7230.36
  774      517.096      7247.56
  775      517.522      7265.18
  776      517.947      7287.76
  777      518.372      7317.12
  778      518.797      7344.06
  779      519.222      7369.34
  780      519.646      7392.88
  781      520.071      7414.88
  782      520.495      7439.78
  783       520.92       7466.3
  784      521.344      7487.86
  785      521.768       7513.6
  786      522.192      7543.94
  787      522.616      7567.94
  788       523.04       7590.5
  789      523.464       7617.4
  790      523.888      7640.02
  791      524.311      7657.12
  792      524.735      7675.04
  793      525.158      7692.52
  794      525.581       7710.8
  795      526.005      7729.12
  796      526.428       7749.8
  797      526.851      7776.62
  798      527.274      7804.16
  799      527.696      7823.92
  800      528.119       7839.2
  801      528.542      7846.18
  802      528.964      7843.64
  803      529.386       7847.5
  804      529.809      7857.86
  805      530.231      7876.18
  806      530.653         7910
  807      531.075       7952.7
  808      531.497      7992.48
  809      531.918       8037.3
  810       532.34      8073.98
  811      532.761      8088.88
  812      533.183      8094.72
  813      533.604      8098.18
  814      534.025      8099.72
  815      534.447      8110.14
  816      534.868       8136.2
  817      535.289      8176.88
  818      535.709      8216.56
  819       536.13      8241.18
  820      536.551      8255.34
  821      536.971      8253.32
  822      537.392      8235.24
  823      537.812      8223.62
  824      538.232      8237.06
  825      538.652      8256.82
  826      539.072      8274.02
  827      539.492      8281.16
  828      539.912      8267.62
  829      540.331      8234.98
  830      540.751      8209.62
  831       541.17      8209.42
  832       541.59      8221.86
  833      542.009      8244.68
  834      542.428      8272.84
  835      542.847      8290.98
  836      543.266         8287
  837      543.685      8273.04
  838      544.104      8254.96
  839      544.522      8242.78
  840      544.941       8243.9
  841      545.359      8258.16
  842      545.778      8284.86
  843      546.196      8323.58
  844      546.614      8365.04
  845      547.032      8401.24
  846       547.45      8432.22
  847      547.867      8454.62
  848      548.285      8476.24
  849      548.703      8501.92
  850       549.12      8524.54
  851      549.538      8552.22
  852      549.955      8595.14
  853      550.372       8635.2
  854      550.789         8671
  855      551.206      8712.24
  856      551.623      8752.62
  857      552.039      8793.16
  858      552.456       8847.2
  859      552.873      8907.84
  860      553.289      8981.58
  861      553.705      9074.62
  862      554.121      9179.46
  863      554.537      9284.12
  864      554.953      9377.56
  865      555.369       9457.2
  866      555.785      9525.46
  867      556.201      9583.08
  868      556.616      9633.02
  869      557.032       9692.9
  870      557.447      9761.16
  871      557.862      9841.44
  872      558.277       9938.6
  873      558.692      10045.5
  874      559.107      10146.1
  875      559.522      10242.7
  876      559.937        10335
  877      560.351      10416.8
  878      560.766      10498.9
  879       561.18      10576.8
  880      561.595      10638.5
  881      562.009        10686
  882      562.423      10720.3
  883      562.837        10737
  884       563.25      10757.2
  885      563.664      10794.7
  886      564.078      10830.9
  887      564.491      10864.4
  888      564.905      10901.3
  889      565.318      10922.8
  890      565.731      10914.7
  891      566.144        10904
  892      566.557      10895.9
  893       566.97      10882.6
  894      567.383      10879.8
  895      567.795      10888.6
  896      568.208      10894.1
  897       568.62      10904.6
  898      569.033      10919.2
  899      569.445      10922.4
  900      569.857      10936.9
  901      570.269      10978.6
  902      570.681      11027.4
  903      571.093      11093.2
  904      571.504      11188.2
  905      571.916      11285.1
  906      572.327      11380.4
  907      572.739      11472.1
  908       573.15      11552.6
  909      573.561      11624.8
  910      573.972      11695.8
  911      574.383      11765.6
  912      574.794      11846.3
  913      575.204      11924.8
  914      575.615      11991.3
  915      576.025      12057.6
  916      576.436      12112.8
  917      576.846      12133.3
  918      577.256      12134.5
  919      577.666      12139.2
  920      578.076      12150.5
  921      578.486      12178.8
  922      578.896      12226.1
  923      579.305      12284.6
  924      579.715        12335
  925      580.124      12360.5
  926      580.533      12358.7
  927      580.942      12349.3
  928      581.351      12333.9
  929       581.76        12312
  930      582.169      12297.2
  931      582.578      12279.9
  932      582.986      12260.4
  933      583.395      12248.6
  934      583.803      12244.2
  935      584.212      12246.4
  936       584.62      12255.9
  937      585.028      12258.8
  938      585.436      12251.7
  939      585.843      12240.4
  940      586.251      12213.1
  941      586.659      12164.4
  942      587.066      12126.5
  943      587.474      12103.6
  944      587.881        12084
  945      588.288      12065.5
  946      588.695      12049.8
  947      589.102      12033.4
  948      589.509      12004.5
  949      589.915      11964.2
  950      590.322      11930.1
  951      590.728      11907.5
  952      591.135      11876.3
  953      591.541      11848.3
  954      591.947      11823.4
  955      592.353      11801.6
  956      592.759        11791
  957      593.165      11790.4
  958      593.571        11786
  959      593.976      11779.3
  960      594.382      11767.6
  961      594.787      11741.7
  962      595.192      11706.4
  963      595.597      11668.9
  964      596.002      11638.8
  965      596.407      11615.7
  966      596.812      11586.5
  967      597.217      11539.8
  968      597.621      11491.7
  969      598.026      11452.4
  970       598.43      11419.7
  971      598.834      11399.1
  972      599.238      11387.2
  973      599.642        11363
  974      600.046        11316
  975       600.45      11248.3
  976      600.854      11173.3
  977      601.257      11107.9
  978      601.661      11055.8
  979      602.064      11013.7
  980      602.467      10978.4
  981       602.87      10944.6
  982      603.273      10904.2
  983      603.676      10861.4
  984      604.079      10824.7
  985      604.481      10779.3
  986      604.884      10713.1
  987      605.286      10645.5
  988      605.689      10580.9
  989      606.091      10512.2
  990      606.493      10457.9
  991      606.895        10427
  992      607.297      10402.6
  993      607.698      10367.9
  994        608.1        10320
  995      608.501      10260.4
  996      608.903      10198.4
  997      609.304      10138.4
  998      609.705      10089.2
  999      610.106        10052
 1000      610.507      10012.9
 1001      610.908      9958.52
 1002      611.308      9888.74
 1003      611.709      9807.28
 1004      612.109      9714.84
 1005       612.51      9631.72
 1006       612.91      9563.38
 1007       613.31      9503.32
 1008       613.71      9455.58
 1009       614.11      9411.72
 1010       614.51      9361.22
 1011      614.909      9320.54
 1012      615.309      9284.86
 1013      615.708      9240.54
 1014      616.108      9200.42
 1015      616.507       9160.7
 1016      616.906       9097.5
 1017      617.305      9025.32
 1018      617.704      8957.14
 1019      618.102      8886.24
 1020      618.501      8811.78
 1021      618.899      8741.04
 1022      619.298       8671.8
 1023      619.696      8598.06
 1024      620.094      8524.06
 1025      620.492      8454.54
 1026       620.89      8388.54
 1027      621.288      8318.56
 1028      621.686      8251.62
 1029      622.083      8196.88
 1030       622.48      8147.62
 1031      622.878       8101.8
 1032      623.275      8061.42
 1033      623.672      8020.26
 1034      624.069      7970.92
 1035      624.466      7920.84
 1036      624.863      7869.02
 1037      625.259      7811.86
 1038      625.656       7750.5
 1039      626.052      7685.86
 1040      626.448      7610.76
 1041      626.844      7533.56
 1042      627.241      7467.46
 1043      627.636      7409.92
 1044      628.032      7360.28
 1045      628.428       7326.7
 1046      628.823      7299.64
 1047      629.219      7264.78
 1048      629.614      7232.94
 1049      630.009      7199.98
 1050      630.404       7152.9
 1051      630.799      7093.52
 1052      631.194      7030.68
 1053      631.589      6963.14
 1054      631.984      6889.66
 1055      632.378      6818.04
 1056      632.772      6752.66
 1057      633.167       6685.5
 1058      633.561      6616.06
 1059      633.955       6549.3
 1060      634.349      6479.84
 1061      634.743       6411.4
 1062      635.136      6353.44
 1063       635.53      6299.52
 1064      635.923      6243.76
 1065      636.316      6195.72
 1066       636.71      6153.58
 1067      637.103      6108.32
 1068      637.496      6058.68
 1069      637.888      6004.08
 1070      638.281         5941
 1071      638.674      5871.22
 1072      639.066      5806.18
 1073      639.459      5747.82
 1074      639.851      5694.96
 1075      640.243      5641.86
 1076      640.635      5580.18
 1077      641.027       5513.6
 1078      641.419       5450.3
 1079       641.81      5394.28
 1080      642.202       5344.8
 1081      642.593       5304.5
 1082      642.984      5264.12
 1083      643.375       5213.6
 1084      643.766      5155.42
 1085      644.157       5102.7
 1086      644.548      5058.12
 1087      644.939      5018.86
 1088      645.329      4980.06
 1089       645.72       4939.9
 1090       646.11       4891.5
 1091        646.5      4833.32
 1092       646.89      4770.46
 1093       647.28      4712.68
 1094       647.67      4660.84
 1095       648.06      4610.36
 1096      648.449      4555.46
 1097      648.839      4496.14
 1098      649.228      4432.08
 1099      649.617      4362.76
 1100      650.007      4291.96
 1101      650.396      4224.76
 1102      650.784      4165.56
 1103      651.173       4115.7
 1104      651.562      4069.74
 1105       651.95      4025.24
 1106      652.339      3983.76
 1107      652.727      3941.78
 1108      653.115      3900.78
 1109      653.503      3865.24
 1110      653.891         3837
 1111      654.279      3816.32
 1112      654.666       3801.8
 1113      655.054      3790.62
 1114      655.441      3779.98
 1115      655.828      3767.06
 1116      656.216      3752.98
 1117      656.603      3740.14
 1118      656.989       3725.4
 1119      657.376      3709.08
 1120      657.763      3692.86
 1121      658.149      3676.98
 1122      658.536      3656.88
 1123      658.922       3635.3
 1124      659.308      3613.64
 1125      659.694      3589.74
 1126       660.08      3561.58
 1127      660.466      3530.62
 1128      660.852       3495.7
 1129      661.237      3455.94
 1130      661.623      3416.44
 1131      662.008      3380.92
 1132      662.393      3346.82
 1133      662.778      3310.66
 1134      663.163       3276.7
 1135      663.548       3245.7
 1136      663.933      3212.24
 1137      664.317      3176.74
 1138      664.702      3141.92
 1139      665.086      3107.08
 1140       665.47      3070.86
 1141      665.854      3034.64
 1142      666.238      2999.96
 1143      666.622      2966.96
 1144      667.006      2934.62
 1145      667.389      2902.38
 1146      667.773      2869.78
 1147      668.156       2836.6
 1148      668.539      2805.44
 1149      668.923       2777.3
 1150      669.305      2749.92
 1151      669.688      2722.64
 1152      670.071       2697.9
 1153      670.454      2673.04
 1154      670.836      2645.28
 1155      671.218       2617.8
 1156      671.601       2592.1
 1157      671.983       2565.4
 1158      672.365      2538.52
 1159      672.747      2512.36
 1160      673.128      2485.12
 1161       673.51      2457.98
 1162      673.891      2431.94
 1163      674.273       2407.9
 1164      674.654      2386.92
 1165      675.035      2367.36
 1166      675.416      2346.54
 1167      675.797      2323.94
 1168      676.177      2300.34
 1169      676.558      2277.16
 1170      676.938       2256.6
 1171      677.319      2237.88
 1172      677.699      2219.54
 1173      678.079      2199.96
 1174      678.459       2176.8
 1175      678.839      2150.76
 1176      679.219      2126.08
 1177      679.598      2104.54
 1178      679.978      2086.02
 1179      680.357      2070.28
 1180      680.736      2054.54
 1181      681.115      2037.52
 1182      681.494      2020.76
 1183      681.873      2004.32
 1184      682.252      1987.38
 1185       682.63      1970.86
 1186      683.009       1954.3
 1187      683.387      1937.08
 1188      683.765      1918.18
 1189      684.143      1899.44
 1190      684.521      1882.34
 1191      684.899       1864.8
 1192      685.277      1846.54
 1193      685.654      1830.36
 1194      686.032      1815.06
 1195      686.409       1798.1
 1196      686.786       1782.3
 1197      687.163      1768.22
 1198       687.54      1753.28
 1199      687.917      1738.28
 1200      688.294      1724.14
 1201       688.67      1710.48
 1202      689.046      1696.76
 1203      689.423      1683.68
 1204      689.799      1670.92
 1205      690.175       1658.1
 1206      690.551      1644.84
 1207      690.927      1631.72
 1208      691.302      1619.02
 1209      691.678      1605.92
 1210      692.053      1593.16
 1211      692.428      1580.94
 1212      692.804      1568.62
 1213      693.179      1556.54
 1214      693.553       1544.9
 1215      693.928      1533.52
 1216      694.303       1522.4
 1217      694.677      1511.44
 1218      695.052      1500.46
 1219      695.426       1490.7
 1220        695.8      1481.88
 1221      696.174      1472.44
 1222      696.548      1462.12
 1223      696.921      1450.32
 1224      697.295      1437.36
 1225      697.669      1425.04
 1226      698.042      1413.88
 1227      698.415      1403.06
 1228      698.788         1393
 1229      699.161       1383.7
 1230      699.534      1373.72
 1231      699.907      1363.72
 1232      700.279      1354.92
 1233      700.652      1347.48
 1234      701.024      1339.84
 1235      701.396      1331.66
 1236      701.768      1322.98
 1237       702.14      1313.94
 1238      702.512       1304.4
 1239      702.883       1294.3
 1240      703.255       1285.1
 1241      703.626      1277.56
 1242      703.998       1270.2
 1243      704.369      1262.94
 1244       704.74      1256.96
 1245      705.111      1250.52
 1246      705.481      1243.22
 1247      705.852      1236.56
 1248      706.222       1229.5
 1249      706.593         1222
 1250      706.963      1214.96
 1251      707.333      1207.56
 1252      707.703      1199.68
 1253      708.073       1192.2
 1254      708.442       1184.7
 1255      708.812       1177.5
 1256      709.181      1171.34
 1257      709.551      1165.32
 1258       709.92       1158.9
 1259      710.289       1152.9
 1260      710.658      1147.04
 1261      711.027      1140.24
 1262      711.395      1133.44
 1263      711.764       1127.1
 1264      712.132       1120.2
 1265        712.5       1113.4
 1266      712.869       1107.4
 1267      713.236      1101.72
 1268      713.604      1096.24
 1269      713.972      1091.46
 1270       714.34      1086.72
 1271      714.707      1082.14
 1272      715.074      1078.12
 1273      715.442      1073.88
 1274      715.809      1068.34
 1275      716.176      1062.66
 1276      716.542      1056.96
 1277      716.909      1050.64
 1278      717.276      1044.76
 1279      717.642      1040.76
 1280      718.008      1037.46
 1281      718.374       1033.9
 1282       718.74      1030.38
 1283      719.106      1027.32
 1284      719.472      1023.78
 1285      719.838         1019
 1286      720.203      1013.78
 1287      720.568         1009
 1288      720.934      1004.34
 1289      721.299       999.42
 1290      721.664       995.68
 1291      722.029       993.06
 1292      722.393       989.98
 1293      722.758       985.86
 1294      723.122       981.62
 1295      723.486       976.98
 1296      723.851        972.1
 1297      724.215       967.56
 1298      724.578        963.4
 1299      724.942       960.04
 1300      725.306       956.34
 1301      725.669       951.86
 1302      726.033       948.38
 1303      726.396        946.2
 1304      726.759       943.38
 1305      727.122       940.88
 1306      727.485       939.74
 1307      727.847       938.36
 1308       728.21       936.04
 1309      728.572        933.8
 1310      728.935       930.74
 1311      729.297       926.58
 1312      729.659       922.24
 1313      730.021       918.28
 1314      730.382       914.62
 1315      730.744       911.82
 1316      731.105       909.62
 1317      731.467       906.74
 1318      731.828       903.64
 1319      732.189       900.34
 1320       732.55       896.74
 1321      732.911       893.36
 1322      733.271       890.62
 1323      733.632       888.42
 1324      733.992        886.4
 1325      734.352       884.56
 1326      734.713        882.2
 1327      735.072       879.38
 1328      735.432       876.26
 1329      735.792       873.26
 1330      736.152       871.24
 1331      736.511       870.06
 1332       736.87        868.9
 1333      737.229        867.6
 1334      737.589       866.24
 1335      737.947       864.28
 1336      738.306        861.8
 1337      738.665       859.14
 1338      739.023       856.28
 1339      739.382        854.1
 1340       739.74        852.3
 1341      740.098       850.34
 1342      740.456       848.56
 1343      740.814       847.08
 1344      741.171        845.7
 1345      741.529          844
 1346      741.886       841.98
 1347      742.244        839.9
 1348      742.601        837.9
 1349      742.958       835.64
 1350      743.314       833.56
 1351      743.671       832.44
 1352      744.028       831.62
 1353      744.384       830.56
 1354       744.74       829.16
 1355      745.097       827.28
 1356      745.453       824.62
 1357      745.809       822.18
 1358      746.164       819.94
 1359       746.52       817.66
 1360      746.875       815.86
 1361      747.231       814.82
 1362      747.586       813.98
 1363      747.941        813.7
 1364      748.296       813.84
 1365      748.651        813.9
 1366      749.005       814.08
 1367       749.36       814.22
 1368      749.714       814.02
 1369      750.069       814.22
 1370      750.423       814.54
 1371      750.777          814
 1372       751.13       813.28
 1373      751.484       812.42
 1374      751.838       811.26
 1375      752.191        810.6
 1376      752.544        810.8
 1377      752.897        811.2
 1378       753.25       811.42
 1379      753.603       811.18
 1380      753.956       810.32
 1381      754.309       809.28
 1382      754.661       808.44
 1383      755.013       808.24
 1384      755.365       808.52
 1385      755.717        808.9
 1386      756.069       808.68
 1387      756.421       807.46
 1388      756.773       805.98
 1389      757.124       804.04
 1390      757.476       801.82
 1391      757.827        800.4
 1392      758.178       800.16
 1393      758.529        799.6
 1394      758.879       798.72
 1395       759.23        798.1
 1396      759.581       797.42
 1397      759.931       795.52
 1398      760.281       792.86
 1399      760.631       790.48
 1400      760.981       788.28
 1401      761.331       786.32
 1402      761.681       785.28
 1403       762.03       784.42
 1404      762.379       783.28
 1405      762.729       782.22
 1406      763.078       780.36
 1407      763.427        778.3
 1408      763.776       777.58
 1409      764.124       777.74
 1410      764.473       777.38
 1411      764.821       776.64
 1412      765.169       775.32
 1413      765.517        773.4
 1414      765.865       772.02
 1415      766.213       771.12
 1416      766.561        769.9
 1417      766.909        769.4
 1418      767.256       769.62
 1419      767.603       768.98
 1420       767.95       767.96
 1421      768.297       768.24
 1422      768.644       768.62
 1423      768.991       768.56
 1424      769.337       767.88
 1425      769.684       766.64
 1426       770.03       764.72
 1427      770.376       762.42
 1428      770.722       759.96
 1429      771.068       758.04
 1430      771.414       756.98
 1431      771.759       756.56
 1432      772.105       756.36
 1433       772.45       756.28
 1434      772.795       756.28
 1435       773.14       756.34
 1436      773.485       756.16
 1437       773.83       755.26
 1438      774.174       753.88
 1439      774.519        752.7
 1440      774.863       751.46
 1441      775.207       750.34
 1442      775.551        749.9
 1443      775.895       749.94
 1444      776.239       749.68
 1445      776.582       749.52
 1446      776.926       749.74
 1447      777.269       749.84
 1448      777.612       749.54
 1449      777.955       749.26
 1450      778.298       749.06
 1451      778.641        748.4
 1452      778.983       747.78
 1453      779.326       747.04
 1454      779.668       746.18
 1455       780.01       744.94
 1456      780.352       743.78
 1457      780.694          743
 1458      781.036       742.56
 1459      781.377       742.44
 1460      781.719       742.58
 1461       782.06        742.6
 1462      782.401        742.4
 1463      782.742       742.38
 1464      783.083        742.9
 1465      783.424       743.22
 1466      783.764       743.28
 1467      784.105        743.3
 1468      784.445       743.42
 1469      784.785       743.12
 1470      785.125       742.46
 1471      785.465       741.98
 1472      785.805       741.72
 1473      786.144       741.56
 1474      786.484       741.08
 1475      786.823       740.98
 1476      787.162       741.06
 1477      787.501       740.72
 1478       787.84        740.6
 1479      788.178          741
 1480      788.517       741.54
 1481      788.855        742.2
 1482      789.194        742.6
 1483      789.532       741.96
 1484       789.87       740.84
 1485      790.208        739.7
 1486      790.545       738.66
 1487      790.883       738.46
 1488       791.22        738.7
 1489      791.557       738.64
 1490      791.894       738.46
 1491      792.231        737.9
 1492      792.568       736.56
 1493      792.905       735.24
 1494      793.241       734.48
 1495      793.578        733.7
 1496      793.914       733.18
 1497       794.25        733.9
 1498      794.586       734.88
 1499      794.922       735.46
 1500      795.257       735.56
 1501      795.593       735.84
 1502      795.928        735.7
 1503      796.263       735.86
 1504      796.598       736.34
 1505      796.933        737.4
 1506      797.268       738.16
 1507      797.603       738.34
 1508      797.937        737.5
 1509      798.271       736.36
 1510      798.606          735
 1511       798.94       733.34
 1512      799.274       731.84
 1513      799.607       730.86
 1514      799.941       729.78
 1515      800.274        729.2
 1516      800.608        729.1
 1517      800.941       729.08
 1518      801.274       729.02
 1519      801.607        729.1
 1520      801.939       729.32
 1521      802.272       729.58
 1522      802.604       729.62
 1523      802.936       729.84
 1524      803.269        730.5
 1525      803.601       731.08
 1526      803.932       731.54
 1527      804.264        731.9
 1528      804.596       732.22
 1529      804.927       732.28
 1530      805.258       732.14
 1531      805.589       731.84
 1532       805.92        731.8
 1533      806.251       731.66
 1534      806.582       731.66
 1535      806.912          732
 1536      807.242       732.96
 1537      807.573        733.8
 1538      807.903       734.34
 1539      808.232       734.72
 1540      808.562       734.58
 1541      808.892       733.78
 1542      809.221       733.08
 1543      809.551       732.22
 1544       809.88       730.86
 1545      810.209       729.36
 1546      810.538       728.26
 1547      810.866       727.52
 1548      811.195       726.84
 1549      811.523       726.78
 1550      811.851        727.1
 1551       812.18        726.8
 1552      812.507       726.16
 1553      812.835       726.12
 1554      813.163       725.92
 1555       813.49       725.78
 1556      813.818       726.28
 1557      814.145       726.88
 1558      814.472       726.78
 1559      814.799       726.34
 1560      815.126       726.34
 1561      815.452        726.2
 1562      815.779       725.86
 1563      816.105        726.2
 1564      816.431       726.96
 1565      816.757       726.82
 1566      817.083       726.18
 1567      817.409        725.4
 1568      817.734       724.38
 1569       818.06       723.36
 1570      818.385       722.98
 1571       818.71       723.18
 1572      819.035       723.42
 1573       819.36       723.86
 1574      819.685       724.44
 1575      820.009       725.18
 1576      820.333       725.32
 1577      820.658       725.48
 1578      820.982       725.44
 1579      821.305       725.26
 1580      821.629       725.04
 1581      821.953       725.22
 1582      822.276        725.5
 1583        822.6       725.88
 1584      822.923       725.94
 1585      823.246       725.34
 1586      823.569       724.34
 1587      823.891        722.9
 1588      824.214       721.44
 1589      824.536       720.48
 1590      824.858       719.82
 1591       825.18       720.02
 1592      825.502       720.82
 1593      825.824       721.56
 1594      826.146        721.9
 1595      826.467       721.64
 1596      826.789       721.32
 1597       827.11       721.16
 1598      827.431       720.64
 1599      827.752       720.18
 1600      828.072       720.38
 1601      828.393       720.72
 1602      828.713       720.56
 1603      829.034       720.74
 1604      829.354       721.06
 1605      829.674          721
 1606      829.993       720.46
 1607      830.313       720.62
 1608      830.633        721.3
 1609      830.952       722.26
 1610      831.271       723.76
 1611       831.59       724.78
 1612      831.909       724.42
 1613      832.228        723.3
 1614      832.546       722.18
 1615      832.865       720.98
 1616      833.183       720.64
 1617      833.501       721.38
 1618      833.819       722.16
 1619      834.137       722.12
 1620      834.455       721.66
 1621      834.772       721.24
 1622      835.089       720.34
 1623      835.407       719.24
 1624      835.724       718.62
 1625       836.04       718.26
 1626      836.357       717.44
 1627      836.674       717.46
 1628       836.99       718.22
 1629      837.306       719.02
 1630      837.623       719.66
 1631      837.939       720.34
 1632      838.254       720.52
 1633       838.57        720.2
 1634      838.886       719.44
 1635      839.201       719.24
 1636      839.516        719.7
 1637      839.831       720.18
 1638      840.146       720.86
 1639      840.461       722.02
 1640      840.775        722.4
 1641       841.09       721.96
 1642      841.404       721.56
 1643      841.718       721.02
 1644      842.032       720.28
 1645      842.346       719.36
 1646      842.659       718.26
 1647      842.973       717.22
 1648      843.286       716.64
 1649      843.599       716.54
 1650      843.912       717.52
 1651      844.225       718.86
 1652      844.538        720.1
 1653      844.851       720.78
 1654      845.163       720.12
 1655      845.475       718.68
 1656      845.787       717.42
 1657      846.099       716.38
 1658      846.411        715.4
 1659      846.723       715.16
 1660      847.034       715.16
 1661      847.345       714.86
 1662      847.657       714.64
 1663      847.968       714.98
 1664      848.278       715.96
 1665      848.589       716.84
 1666        848.9       717.16
 1667       849.21       717.08
 1668       849.52       716.76
 1669       849.83        716.3
 1670       850.14       715.46
 1671       850.45       714.92
 1672      850.759       715.16
 1673      851.069        715.6
 1674      851.378       715.64
 1675      851.687        715.9
 1676      851.996       716.36
 1677      852.305       716.48
 1678      852.614       716.76
 1679      852.922        717.4
 1680       853.23       718.22
 1681      853.539        719.2
 1682      853.847        719.8
 1683      854.154       720.18
 1684      854.462       720.52
 1685       854.77       720.54
 1686      855.077        720.3
 1687      855.384       719.76
 1688      855.691       718.52
 1689      855.998       717.32
 1690      856.305       716.64
 1691      856.612       716.36
 1692      856.918       715.94
 1693      857.224       715.84
 1694       857.53          716
 1695      857.836          716
 1696      858.142       715.68
 1697      858.448       715.74
 1698      858.753       715.96
 1699      859.059        716.1
 1700      859.364       716.58
 1701      859.669       717.64
 1702      859.974       718.64
 1703      860.278       719.42
 1704      860.583       719.74
 1705      860.887       719.96
 1706      861.192        719.8
 1707      861.496       719.58
 1708        861.8       719.36
 1709      862.103       718.94
 1710      862.407       718.24
 1711       862.71       717.24
 1712      863.014       716.14
 1713      863.317       715.68
 1714       863.62       715.92
 1715      863.922       716.34
 1716      864.225       716.66
 1717      864.527       717.06
 1718       864.83        716.8
 1719      865.132       715.76
 1720      865.434        714.4
 1721      865.736       714.16
 1722      866.037       714.48
 1723      866.339       715.38
 1724       866.64       716.94
 1725      866.941       718.34
 1726      867.242        718.5
 1727      867.543       718.16
 1728      867.844        717.1
 1729      868.145       715.66
 1730      868.445        714.9
 1731      868.745       714.94
 1732      869.045       715.16
 1733      869.345       715.38
 1734      869.645       715.82
 1735      869.944       716.12
 1736      870.244       715.96
 1737      870.543        715.6
 1738      870.842        715.9
 1739      871.141       716.06
 1740       871.44       715.92
 1741      871.739       715.88
 1742      872.037       715.18
 1743      872.335       713.64
 1744      872.634       712.28
 1745      872.931       711.54
 1746      873.229        711.3
 1747      873.527       711.74
 1748      873.824       712.98
 1749      874.122       714.12
 1750      874.419       714.32
 1751      874.716       714.08
 1752      875.013        714.1
 1753      875.309       713.96
 1754      875.606        713.7
 1755      875.902       713.54
 1756      876.199       713.58
 1757      876.495       713.94
 1758       876.79        714.3
 1759      877.086       714.74
 1760      877.382        715.2
 1761      877.677       715.18
 1762      877.972       714.54
 1763      878.267       713.98
 1764      878.562       713.82
 1765      878.857       713.98
 1766      879.152       714.54
 1767      879.446        715.6
 1768       879.74       716.44
 1769      880.034       716.28
 1770      880.328       715.68
 1771      880.622       714.92
 1772      880.916       713.86
 1773      881.209        712.9
 1774      881.502       712.42
 1775      881.795       712.38
 1776      882.088       712.16
 1777      882.381       711.54
 1778      882.674       711.34
 1779      882.966       711.44
 1780      883.258       711.44
 1781      883.551       712.36
 1782      883.843       714.12
 1783      884.134        715.1
 1784      884.426        715.3
 1785      884.717        715.4
 1786      885.009       715.14
 1787        885.3       714.88
 1788      885.591       714.58
 1789      885.882       714.56
 1790      886.172       714.84
 1791      886.463        714.4
 1792      886.753       713.32
 1793      887.043       712.88
 1794      887.333       713.08
 1795      887.623       713.36
 1796      887.913       713.64
 1797      888.202        713.9
 1798      888.492        713.6
 1799      888.781       713.06
 1800       889.07       712.28
 1801      889.359       711.86
 1802      889.647       712.62
 1803      889.936       713.92
 1804      890.224       714.74
 1805      890.512       715.58
 1806        890.8       716.04
 1807      891.088       715.46
 1808      891.376       714.84
 1809      891.663       714.46
 1810      891.951       713.74
 1811      892.238       713.24
 1812      892.525       712.98
 1813      892.812       712.54
 1814      893.099       712.42
 1815      893.385       712.64
 1816      893.671       712.66
 1817      893.958       712.68
 1818      894.244       712.24
 1819       894.53       711.54
 1820      894.815        711.4
 1821      895.101       712.04
 1822      895.386        712.5
 1823      895.671        713.4
 1824      895.956       714.42
 1825      896.241       714.82
 1826      896.526       714.62
 1827       896.81       713.94
 1828      897.095       713.08
 1829      897.379       712.46
 1830      897.663       712.08
 1831      897.947       711.48
 1832      898.231        711.5
 1833      898.514        712.1
 1834      898.798       712.64
 1835      899.081       713.14
 1836      899.364       713.72
 1837      899.647       713.84
 1838      899.929       713.76
 1839      900.212       713.72
 1840      900.494       713.52
 1841      900.776       713.84
 1842      901.058       714.46
 1843       901.34       715.04
 1844      901.622       715.14
 1845      901.904       714.86
 1846      902.185       714.24
 1847      902.466       714.16
 1848      902.747       714.06
 1849      903.028        714.4
 1850      903.309       715.36
 1851      903.589       716.52
 1852       903.87       717.14
 1853       904.15       717.24
 1854       904.43        716.8
 1855       904.71        716.1
 1856      904.989       715.22
 1857      905.269       714.22
 1858      905.548       713.64
 1859      905.827       713.82
 1860      906.106       714.24
 1861      906.385        714.7
 1862      906.664       715.02
 1863      906.942       715.36
 1864      907.221       715.04
 1865      907.499       714.58
 1866      907.777       714.08
 1867      908.055       713.48
 1868      908.332       712.34
 1869       908.61       711.54
 1870      908.887       711.02
 1871      909.164        710.9
 1872      909.441       711.52
 1873      909.718       712.44
 1874      909.995       712.56
 1875      910.271       712.24
 1876      910.548        712.1
 1877      910.824       711.12
 1878        911.1       710.32
 1879      911.375        710.6
 1880      911.651       711.54
 1881      911.927       712.24
 1882      912.202       713.34
 1883      912.477       713.96
 1884      912.752       713.86
 1885      913.027        713.6
 1886      913.301       713.46
 1887      913.576        713.3
 1888       913.85       713.16
 1889      914.124       713.64
 1890      914.398        713.6
 1891      914.672        713.3
 1892      914.945       713.28
 1893      915.219       713.38
 1894      915.492       712.74
 1895      915.765       712.28
 1896      916.038       711.92
 1897      916.311        711.8
 1898      916.583       712.06
 1899      916.856        712.8
 1900      917.128       713.74
 1901        917.4       714.48
 1902      917.672          715
 1903      917.944       715.54
 1904      918.215       715.76
 1905      918.486       715.58
 1906      918.758       715.34
 1907      919.029        714.9
 1908      919.299        714.4
 1909       919.57       714.22
 1910      919.841       714.36
 1911      920.111       714.02
 1912      920.381       713.38
 1913      920.651       712.56
 1914      920.921        711.1
 1915      921.191       709.72
 1916       921.46       709.08
 1917      921.729          709
 1918      921.999       709.58
 1919      922.268       710.76
 1920      922.536        711.6
 1921      922.805       712.26
 1922      923.073       712.42
 1923      923.342          712
 1924       923.61        712.2
 1925      923.878       712.88
 1926      924.145       713.62
 1927      924.413       714.24
 1928       924.68       714.44
 1929      924.948       713.62
 1930      925.215       712.12
 1931      925.482       711.04
 1932      925.748       710.36
 1933      926.015        709.9
 1934      926.281        709.8
 1935      926.547       710.04
 1936      926.813       710.28
 1937      927.079       710.82
 1938      927.345       711.36
 1939       927.61       711.78
 1940      927.876       712.32
 1941      928.141       712.44
 1942      928.406       712.32
 1943      928.671        712.7
 1944      928.935       713.58
 1945        929.2        714.1
 1946      929.464       713.92
 1947      929.728        713.5
 1948      929.992        713.2
 1949      930.256       712.64
 1950       930.52       712.06
 1951      930.783       711.96
 1952      931.046       711.88
 1953      931.309       711.12
 1954      931.572       710.42
 1955      931.835        710.3
 1956      932.097       710.34
 1957       932.36       710.74
 1958      932.622        711.4
 1959      932.884       711.92
 1960      933.146        712.2
 1961      933.408       712.58
 1962      933.669       712.54
 1963       933.93       712.76
 1964      934.192        713.3
 1965      934.453       713.98
 1966      934.713       714.36
 1967      934.974       714.48
 1968      935.234       714.18
 1969      935.495       713.88
 1970      935.755       713.24
 1971      936.015       712.14
 1972      936.274        711.3
 1973      936.534       711.02
 1974      936.793          710
 1975      937.053          709
 1976      937.312       709.42
 1977      937.571        710.3
 1978      937.829       710.46
 1979      938.088       710.94
 1980      938.346       711.64
 1981      938.604       711.56
 1982      938.862       711.12
 1983       939.12       710.66
 1984      939.378        710.6
 1985      939.635        710.9
 1986      939.893       710.92
 1987       940.15       710.92
 1988      940.407       711.28
 1989      940.663       711.36
 1990       940.92        711.2
 1991      941.176        711.5
 1992      941.433       711.72
 1993      941.689       712.12
 1994      941.944       712.56
 1995        942.2       712.82
 1996      942.456       712.86
 1997      942.711       712.36
 1998      942.966       711.64
 1999      943.221       711.46
 2000      943.476        711.3
 2001      943.731       710.92
 2002      943.985        711.4
 2003      944.239        712.1
 2004      944.493       711.68
 2005      944.747       710.92
 2006      945.001       710.74
 2007      945.255       710.82
 2008      945.508       710.64
 2009      945.761       711.24
 2010      946.014       712.26
 2011      946.267       713.18
 2012       946.52       713.74
 2013      946.772       714.34
 2014      947.025       714.48
 2015      947.277       714.16
 2016      947.529       713.86
 2017      947.781       713.42
 2018      948.032       712.36
 2019      948.284        711.4
 2020      948.535       710.88
 2021      948.786       710.34
 2022      949.037       709.82
 2023      949.288       710.12
 2024      949.538       710.86
 2025      949.789       711.24
 2026      950.039       711.32
 2027      950.289       711.72
 2028      950.539       712.14
 2029      950.788       712.46
 2030      951.038       712.36
 2031      951.287        712.1
 2032      951.536       712.08
 2033      951.785       711.76
 2034      952.034       711.02
 2035      952.282       711.12
 2036      952.531       711.34
 2037      952.779        710.9
 2038      953.027       710.42
 2039      953.275       709.68
 2040      953.523        708.7
 2041       953.77       708.08
 2042      954.017        707.9
 2043      954.264       708.34
 2044      954.511        709.5
 2045      954.758        710.4
 2046      955.005       711.05
 2047      955.251      711.667
