scansci Spectrometer Data File
--- Measurement Setting ---
Type: Sample Spectrum
Date: Mon Oct 16 15:32:34 2023
User: (Reserved by scansci)
Serial: (Reserved by scansci)
Channel: No. 11
Integration Time: 1
Average: 10
Boxcar: 2
Electrical Dark: No-corrected
Time Normalize: (Reserved by scansci)
Dual-beam: (Reserved by scansci)
Reference Ch: (Reserved by scansci)
--- Measurement Data ---
Pixel   Wavelength   Intensity
    0        344.4          580
    1      344.867        579.1
    2      345.334       578.34
    3      345.801       577.08
    4      346.268       576.34
    5      346.735       576.14
    6      347.202       575.98
    7      347.669       576.08
    8      348.135       576.46
    9      348.602       576.56
   10      349.068       576.62
   11      349.535        576.9
   12      350.001       577.32
   13      350.467        577.6
   14      350.933       577.72
   15      351.399       578.12
   16      351.866        578.4
   17      352.331       578.66
   18      352.797       579.04
   19      353.263       579.52
   20      353.729       579.56
   21      354.194       579.96
   22       354.66       580.22
   23      355.126       579.98
   24      355.591       579.78
   25      356.056       579.82
   26      356.522       579.44
   27      356.987       578.62
   28      357.452        578.1
   29      357.917       577.66
   30      358.382       577.12
   31      358.847       576.76
   32      359.312          577
   33      359.776       577.44
   34      360.241        577.5
   35      360.706       577.44
   36       361.17       577.76
   37      361.634       578.38
   38      362.099       578.72
   39      362.563          579
   40      363.027       579.72
   41      363.491       580.18
   42      363.955       580.14
   43      364.419       580.28
   44      364.883       580.42
   45      365.347       580.04
   46      365.811       579.62
   47      366.274       579.16
   48      366.738       578.46
   49      367.201        578.1
   50      367.665       578.12
   51      368.128       578.24
   52      368.592       578.48
   53      369.055       578.32
   54      369.518       578.58
   55      369.981       579.26
   56      370.444        579.9
   57      370.907       580.46
   58       371.37       581.34
   59      371.832       581.36
   60      372.295       580.46
   61      372.757       579.48
   62       373.22       578.48
   63      373.682       578.02
   64      374.145       578.16
   65      374.607        578.5
   66      375.069       578.78
   67      375.531       579.16
   68      375.993       579.12
   69      376.455        578.9
   70      376.917       579.22
   71      377.379       579.88
   72      377.841        580.5
   73      378.302       580.96
   74      378.764       581.38
   75      379.225        581.7
   76      379.687        581.1
   77      380.148       580.08
   78      380.609        579.4
   79      381.071       578.76
   80      381.532        578.1
   81      381.993       578.12
   82      382.454       578.32
   83      382.915       578.16
   84      383.375       578.22
   85      383.836       578.52
   86      384.297        578.8
   87      384.757       579.02
   88      385.218        579.5
   89      385.678        579.8
   90      386.138       579.86
   91      386.599       579.88
   92      387.059       579.44
   93      387.519       578.66
   94      387.979       577.84
   95      388.439       576.78
   96      388.899        575.8
   97      389.358       575.84
   98      389.818       576.76
   99      390.278       577.96
  100      390.737       579.12
  101      391.197       580.08
  102      391.656       580.72
  103      392.115       580.42
  104      392.575       579.68
  105      393.034       578.68
  106      393.493       578.08
  107      393.952       577.74
  108      394.411        577.9
  109       394.87        578.2
  110      395.328       578.84
  111      395.787       579.26
  112      396.246       579.42
  113      396.704        579.8
  114      397.163       580.36
  115      397.621       580.46
  116      398.079       580.34
  117      398.537        580.4
  118      398.995       580.24
  119      399.454       580.34
  120      399.911        581.1
  121      400.369       581.66
  122      400.827       581.52
  123      401.285       581.14
  124      401.743       580.36
  125        402.2       579.28
  126      402.658       578.62
  127      403.115       578.82
  128      403.572       579.14
  129       404.03       579.36
  130      404.487       579.42
  131      404.944       579.16
  132      405.401       578.48
  133      405.858       578.02
  134      406.315       577.86
  135      406.771       577.94
  136      407.228       578.52
  137      407.685       579.64
  138      408.141       580.78
  139      408.598       581.14
  140      409.054       581.02
  141       409.51        580.7
  142      409.967       579.88
  143      410.423       578.64
  144      410.879       578.34
  145      411.335       578.58
  146      411.791       578.68
  147      412.246       578.46
  148      412.702       578.64
  149      413.158        578.9
  150      413.613       578.84
  151      414.069       578.92
  152      414.524       579.46
  153       414.98       579.88
  154      415.435       579.94
  155       415.89       580.44
  156      416.345       580.96
  157        416.8       581.28
  158      417.255        581.3
  159       417.71       581.42
  160      418.165       581.32
  161      418.619       580.64
  162      419.074       579.92
  163      419.529       579.38
  164      419.983       578.64
  165      420.437       578.54
  166      420.892        579.5
  167      421.346       580.54
  168        421.8       581.38
  169      422.254        582.2
  170      422.708        582.4
  171      423.162       581.58
  172      423.616       580.66
  173       424.07        580.6
  174      424.523       580.88
  175      424.977       581.14
  176       425.43       581.16
  177      425.884       580.92
  178      426.337        580.1
  179       426.79        578.9
  180      427.243       577.64
  181      427.697       577.48
  182       428.15        577.8
  183      428.602          578
  184      429.055       578.34
  185      429.508       578.98
  186      429.961        579.2
  187      430.413        579.5
  188      430.866          580
  189      431.318       580.44
  190      431.771       580.68
  191      432.223       580.44
  192      432.675        580.1
  193      433.127        579.7
  194      433.579       579.26
  195      434.031       578.68
  196      434.483       578.26
  197      434.935       578.08
  198      435.387       578.32
  199      435.838        578.7
  200       436.29       578.74
  201      436.741       578.88
  202      437.193       579.02
  203      437.644       578.46
  204      438.095       577.68
  205      438.546        577.7
  206      438.997       578.24
  207      439.448       578.12
  208      439.899       577.88
  209       440.35       577.98
  210      440.801       578.06
  211      441.251        577.5
  212      441.702       577.48
  213      442.152       578.02
  214      442.603        578.3
  215      443.053       578.12
  216      443.503       578.48
  217      443.954       578.66
  218      444.404       578.26
  219      444.854        578.1
  220      445.304       577.96
  221      445.753       577.24
  222      446.203       576.56
  223      446.653       576.34
  224      447.102       576.04
  225      447.552       576.22
  226      448.001        576.9
  227      448.451       577.44
  228        448.9       577.64
  229      449.349        577.8
  230      449.798       577.98
  231      450.247       578.12
  232      450.696       578.22
  233      451.145       578.64
  234      451.594       579.38
  235      452.042        579.6
  236      452.491       579.16
  237      452.939       579.02
  238      453.388       579.12
  239      453.836       579.06
  240      454.285       578.96
  241      454.733       579.06
  242      455.181       578.96
  243      455.629        578.7
  244      456.077       578.18
  245      456.525       577.52
  246      456.972       577.14
  247       457.42       577.18
  248      457.868       577.52
  249      458.315       577.94
  250      458.763       578.38
  251       459.21       578.82
  252      459.657       578.74
  253      460.104          578
  254      460.552       577.56
  255      460.999       577.52
  256      461.446       577.56
  257      461.892       577.92
  258      462.339       578.58
  259      462.786       579.28
  260      463.233       579.92
  261      463.679       580.26
  262      464.125       580.62
  263      464.572        580.9
  264      465.018       580.36
  265      465.464       579.88
  266       465.91       579.56
  267      466.356       579.02
  268      466.802       578.54
  269      467.248          579
  270      467.694       579.92
  271       468.14       580.88
  272      468.585       581.46
  273      469.031       581.88
  274      469.476       582.02
  275      469.922       581.88
  276      470.367       581.84
  277      470.812       581.84
  278      471.257       581.54
  279      471.702       581.28
  280      472.147       581.28
  281      472.592       581.18
  282      473.037       581.24
  283      473.482       581.28
  284      473.926        580.9
  285      474.371       580.14
  286      474.815       579.92
  287      475.259        580.1
  288      475.704       580.66
  289      476.148       581.38
  290      476.592        581.6
  291      477.036        581.2
  292       477.48       581.22
  293      477.924       581.28
  294      478.368       581.18
  295      478.811       581.68
  296      479.255        582.6
  297      479.698        582.9
  298      480.142          583
  299      480.585       582.98
  300      481.028       582.42
  301      481.472       581.68
  302      481.915       580.92
  303      482.358       580.28
  304      482.801       580.52
  305      483.244       581.28
  306      483.686       581.84
  307      484.129       582.46
  308      484.572       583.26
  309      485.014        583.4
  310      485.456       583.06
  311      485.899       582.76
  312      486.341        582.8
  313      486.783       582.98
  314      487.225        583.2
  315      487.667       583.54
  316      488.109       583.76
  317      488.551       583.86
  318      488.993        584.1
  319      489.434       584.86
  320      489.876       586.26
  321      490.318       588.28
  322      490.759       590.44
  323        491.2       592.44
  324      491.641       594.04
  325      492.083        595.3
  326      492.524       596.86
  327      492.965       598.92
  328      493.406        601.3
  329      493.846       604.42
  330      494.287        608.2
  331      494.728       612.02
  332      495.168       615.64
  333      495.609       619.06
  334      496.049       622.56
  335      496.489       625.82
  336       496.93       628.64
  337       497.37       631.44
  338       497.81       634.96
  339       498.25       638.66
  340       498.69       643.32
  341      499.129       648.62
  342      499.569        654.1
  343      500.009       659.62
  344      500.448       664.92
  345      500.888       669.92
  346      501.327       675.46
  347      501.766       681.44
  348      502.206       686.74
  349      502.645        691.5
  350      503.084       695.72
  351      503.523       700.38
  352      503.961        705.1
  353        504.4       710.22
  354      504.839       715.98
  355      505.277       722.04
  356      505.716       726.76
  357      506.154        731.1
  358      506.593       735.92
  359      507.031       740.84
  360      507.469       745.84
  361      507.907       751.52
  362      508.345       757.72
  363      508.783       763.76
  364      509.221       769.06
  365      509.659       774.42
  366      510.096       779.98
  367      510.534       785.34
  368      510.971       790.54
  369      511.409       796.34
  370      511.846        801.8
  371      512.283       806.68
  372       512.72        811.7
  373      513.157        817.1
  374      513.594       822.54
  375      514.031        828.7
  376      514.468       835.24
  377      514.905       841.92
  378      515.341       848.38
  379      515.778       853.86
  380      516.214       859.24
  381       516.65       865.36
  382      517.087        871.3
  383      517.523       877.22
  384      517.959        884.3
  385      518.395       891.02
  386      518.831          897
  387      519.267       902.52
  388      519.702        907.9
  389      520.138       913.24
  390      520.574        918.9
  391      521.009       925.12
  392      521.444       931.78
  393       521.88       938.72
  394      522.315       946.16
  395       522.75       953.84
  396      523.185       961.38
  397       523.62       968.16
  398      524.055       974.36
  399       524.49       980.16
  400      524.924       985.86
  401      525.359       991.78
  402      525.794       999.06
  403      526.228      1007.48
  404      526.662      1015.76
  405      527.097      1023.46
  406      527.531       1030.5
  407      527.965       1037.4
  408      528.399      1043.72
  409      528.833      1050.44
  410      529.267      1058.42
  411        529.7      1067.26
  412      530.134       1075.9
  413      530.568      1083.88
  414      531.001       1091.4
  415      531.434      1098.02
  416      531.868      1104.22
  417      532.301      1111.06
  418      532.734      1118.74
  419      533.167         1127
  420        533.6      1136.14
  421      534.033      1145.44
  422      534.466      1153.72
  423      534.898      1162.64
  424      535.331      1172.28
  425      535.763      1181.52
  426      536.196      1190.74
  427      536.628      1201.12
  428       537.06      1212.02
  429      537.493      1222.12
  430      537.925       1231.6
  431      538.357      1240.84
  432      538.788      1248.82
  433       539.22      1255.38
  434      539.652      1262.84
  435      540.084      1271.26
  436      540.515      1280.12
  437      540.947      1289.58
  438      541.378       1298.8
  439      541.809       1308.2
  440       542.24      1317.88
  441      542.672      1325.82
  442      543.103      1332.62
  443      543.533       1340.3
  444      543.964      1346.98
  445      544.395      1352.78
  446      544.826      1360.66
  447      545.256      1369.96
  448      545.687      1379.24
  449      546.117      1389.56
  450      546.547         1401
  451      546.978      1411.84
  452      547.408      1421.02
  453      547.838      1429.66
  454      548.268      1437.66
  455      548.698       1444.7
  456      549.127      1452.24
  457      549.557      1461.76
  458      549.987      1472.26
  459      550.416       1482.3
  460      550.846      1491.52
  461      551.275       1499.8
  462      551.704       1507.9
  463      552.133      1516.82
  464      552.562      1527.38
  465      552.991      1539.32
  466       553.42       1552.2
  467      553.849      1565.06
  468      554.278       1576.9
  469      554.706      1588.42
  470      555.135      1600.58
  471      555.563      1612.32
  472      555.991      1623.98
  473       556.42      1636.56
  474      556.848      1649.78
  475      557.276      1662.96
  476      557.704       1676.5
  477      558.132      1691.46
  478       558.56      1706.34
  479      558.987      1719.14
  480      559.415         1732
  481      559.843      1746.72
  482       560.27       1761.6
  483      560.697      1777.06
  484      561.125      1794.92
  485      561.552      1812.64
  486      561.979      1828.08
  487      562.406      1841.72
  488      562.833       1854.6
  489       563.26      1866.82
  490      563.686      1880.72
  491      564.113       1897.5
  492       564.54       1916.6
  493      564.966      1936.38
  494      565.392      1955.54
  495      565.819      1975.08
  496      566.245      1994.94
  497      566.671      2013.56
  498      567.097      2032.32
  499      567.523      2053.28
  500      567.949      2074.12
  501      568.374      2094.04
  502        568.8      2114.02
  503      569.226      2133.78
  504      569.651       2155.2
  505      570.077      2176.86
  506      570.502      2197.84
  507      570.927      2219.42
  508      571.352       2241.2
  509      571.777      2260.18
  510      572.202       2277.8
  511      572.627      2297.34
  512      573.052      2318.36
  513      573.476      2339.86
  514      573.901      2362.88
  515      574.325      2386.58
  516       574.75      2409.06
  517      575.174      2430.58
  518      575.598      2451.42
  519      576.022      2471.28
  520      576.446      2491.94
  521       576.87       2514.3
  522      577.294      2538.46
  523      577.718      2564.44
  524      578.142      2589.74
  525      578.565         2615
  526      578.989      2640.04
  527      579.412      2663.98
  528      579.835      2687.52
  529      580.259      2712.44
  530      580.682      2736.78
  531      581.105       2758.6
  532      581.528       2781.4
  533      581.951       2805.2
  534      582.373      2830.02
  535      582.796      2855.12
  536      583.219      2881.38
  537      583.641       2907.6
  538      584.063      2931.96
  539      584.486       2954.6
  540      584.908      2978.42
  541       585.33      3004.14
  542      585.752      3028.72
  543      586.174      3054.98
  544      586.596      3082.08
  545      587.018       3107.8
  546      587.439      3131.86
  547      587.861      3155.38
  548      588.282      3177.34
  549      588.704      3198.88
  550      589.125      3220.56
  551      589.546      3243.66
  552      589.967      3267.52
  553      590.388      3292.58
  554      590.809      3320.04
  555       591.23      3348.92
  556      591.651       3376.2
  557      592.071      3404.36
  558      592.492      3434.92
  559      592.912      3465.32
  560      593.333      3494.56
  561      593.753      3521.74
  562      594.173      3546.82
  563      594.593      3566.58
  564      595.013      3581.28
  565      595.433      3593.02
  566      595.853      3604.02
  567      596.273      3615.22
  568      596.693      3624.46
  569      597.112       3631.1
  570      597.532       3639.1
  571      597.951      3646.16
  572       598.37      3649.36
  573      598.789       3655.2
  574      599.208      3662.96
  575      599.627      3667.94
  576      600.046      3674.08
  577      600.465      3680.48
  578      600.884      3683.48
  579      601.303      3687.62
  580      601.721       3691.3
  581      602.139       3692.1
  582      602.558       3695.3
  583      602.976      3701.66
  584      603.394      3704.78
  585      603.812      3707.18
  586       604.23      3711.58
  587      604.648      3713.26
  588      605.066      3709.98
  589      605.484      3707.44
  590      605.901      3705.46
  591      606.319       3703.8
  592      606.736      3704.36
  593      607.154       3706.5
  594      607.571      3707.38
  595      607.988      3706.48
  596      608.405      3704.62
  597      608.822      3701.66
  598      609.239      3701.06
  599      609.656      3701.96
  600      610.072      3702.04
  601      610.489      3700.04
  602      610.905       3695.1
  603      611.322      3688.74
  604      611.738      3683.66
  605      612.154       3679.3
  606       612.57      3675.08
  607      612.986      3670.96
  608      613.402       3664.6
  609      613.818       3656.5
  610      614.234      3649.06
  611       614.65      3643.06
  612      615.065      3639.56
  613      615.481      3636.54
  614      615.896      3633.04
  615      616.311      3628.84
  616      616.727      3621.82
  617      617.142       3613.1
  618      617.557      3605.88
  619      617.972      3597.78
  620      618.386       3588.5
  621      618.801      3580.46
  622      619.216      3569.56
  623       619.63       3553.5
  624      620.045      3536.86
  625      620.459       3522.4
  626      620.873      3509.66
  627      621.287      3498.98
  628      621.702      3489.38
  629      622.116      3479.82
  630      622.529       3468.9
  631      622.943      3456.32
  632      623.357      3443.64
  633      623.771      3431.84
  634      624.184      3420.14
  635      624.597      3406.92
  636      625.011         3392
  637      625.424       3376.2
  638      625.837       3360.2
  639       626.25      3344.52
  640      626.663       3330.4
  641      627.076      3316.14
  642      627.489      3300.92
  643      627.901         3287
  644      628.314      3272.26
  645      628.726       3255.3
  646      629.139      3239.14
  647      629.551      3224.24
  648      629.963      3210.02
  649      630.375      3197.32
  650      630.787      3186.26
  651      631.199      3173.96
  652      631.611      3160.18
  653      632.023      3143.68
  654      632.434       3124.6
  655      632.846       3105.4
  656      633.257      3086.66
  657      633.669      3068.74
  658       634.08      3053.54
  659      634.491      3039.22
  660      634.902      3023.76
  661      635.313      3009.44
  662      635.724       2996.4
  663      636.135      2981.72
  664      636.545      2965.58
  665      636.956      2950.46
  666      637.366      2934.56
  667      637.777      2916.12
  668      638.187      2898.18
  669      638.597      2882.24
  670      639.007      2865.44
  671      639.417      2847.64
  672      639.827      2830.98
  673      640.237      2813.38
  674      640.647      2793.98
  675      641.056      2775.38
  676      641.466      2757.18
  677      641.875      2738.16
  678      642.285      2718.96
  679      642.694      2700.08
  680      643.103      2681.36
  681      643.512      2664.62
  682      643.921      2648.22
  683       644.33      2628.58
  684      644.739      2606.58
  685      645.148       2583.1
  686      645.556       2557.3
  687      645.965      2531.82
  688      646.373      2510.52
  689      646.781      2492.52
  690      647.189      2475.56
  691      647.598      2459.86
  692      648.006      2445.22
  693      648.414      2430.66
  694      648.821       2415.1
  695      649.229      2398.94
  696      649.637      2382.98
  697      650.044      2367.94
  698      650.452      2351.78
  699      650.859      2334.84
  700      651.266      2318.34
  701      651.673       2301.8
  702       652.08      2284.48
  703      652.487      2268.58
  704      652.894      2254.08
  705      653.301       2238.8
  706      653.708      2222.78
  707      654.114      2205.94
  708      654.521      2188.96
  709      654.927      2172.18
  710      655.333       2154.9
  711       655.74      2136.42
  712      656.146       2118.8
  713      656.552      2102.24
  714      656.958      2084.38
  715      657.363      2067.04
  716      657.769       2052.2
  717      658.175      2037.14
  718       658.58      2021.28
  719      658.986      2006.84
  720      659.391      1993.06
  721      659.796      1977.58
  722      660.201      1960.62
  723      660.606       1942.7
  724      661.011      1924.12
  725      661.416      1906.26
  726      661.821      1890.28
  727      662.225      1875.18
  728       662.63      1861.38
  729      663.034      1849.54
  730      663.439      1838.42
  731      663.843      1827.34
  732      664.247      1816.22
  733      664.651      1803.14
  734      665.055      1788.44
  735      665.459       1772.9
  736      665.863      1756.92
  737      666.267      1741.88
  738       666.67      1728.18
  739      667.074      1715.06
  740      667.477      1702.06
  741       667.88       1689.1
  742      668.283      1675.46
  743      668.687       1662.2
  744       669.09       1649.9
  745      669.492      1637.66
  746      669.895      1625.48
  747      670.298      1614.08
  748      670.701      1602.96
  749      671.103       1590.2
  750      671.505      1577.02
  751      671.908       1564.9
  752       672.31      1552.68
  753      672.712       1540.1
  754      673.114      1527.76
  755      673.516      1515.22
  756      673.918      1501.94
  757       674.32      1488.18
  758      674.721      1473.46
  759      675.123      1459.86
  760      675.524      1449.56
  761      675.926      1439.92
  762      676.327       1429.6
  763      676.728      1420.98
  764      677.129      1413.74
  765       677.53       1405.3
  766      677.931      1395.94
  767      678.332       1387.6
  768      678.732      1379.08
  769      679.133      1369.36
  770      679.533      1358.68
  771      679.934      1348.46
  772      680.334      1338.74
  773      680.734      1328.14
  774      681.134      1317.16
  775      681.534      1307.68
  776      681.934      1298.72
  777      682.334      1288.96
  778      682.733       1279.9
  779      683.133      1272.34
  780      683.532      1264.48
  781      683.932      1256.14
  782      684.331      1248.62
  783       684.73      1241.12
  784      685.129      1232.58
  785      685.528      1224.08
  786      685.927      1215.66
  787      686.326      1207.28
  788      686.725      1198.86
  789      687.123      1190.54
  790      687.522      1182.22
  791       687.92      1174.02
  792      688.319      1166.02
  793      688.717       1158.4
  794      689.115      1151.08
  795      689.513      1143.12
  796      689.911      1135.14
  797      690.309      1127.02
  798      690.706       1119.1
  799      691.104       1111.4
  800      691.501      1104.76
  801      691.899      1099.18
  802      692.296       1093.7
  803      692.693      1087.82
  804       693.09      1081.94
  805      693.488      1075.34
  806      693.884       1068.1
  807      694.281      1061.52
  808      694.678      1054.84
  809      695.075      1047.82
  810      695.471      1041.12
  811      695.868      1034.54
  812      696.264      1027.68
  813       696.66         1021
  814      697.056       1015.2
  815      697.452      1009.96
  816      697.848      1004.66
  817      698.244       999.86
  818       698.64       995.92
  819      699.035       990.78
  820      699.431        984.9
  821      699.826        979.6
  822      700.222       974.28
  823      700.617        968.5
  824      701.012       962.82
  825      701.407       957.74
  826      701.802       952.72
  827      702.197       947.28
  828      702.592        941.9
  829      702.986       936.78
  830      703.381       930.96
  831      703.775       924.92
  832       704.17       919.12
  833      704.564        913.5
  834      704.958       908.22
  835      705.352       903.42
  836      705.746       898.62
  837       706.14       894.22
  838      706.533       890.56
  839      706.927       886.72
  840      707.321        882.5
  841      707.714        878.7
  842      708.107       874.48
  843      708.501        868.8
  844      708.894       863.32
  845      709.287       858.68
  846       709.68        853.8
  847      710.073       849.26
  848      710.465       845.88
  849      710.858        842.8
  850      711.251       839.26
  851      711.643       835.34
  852      712.035       831.04
  853      712.428       826.02
  854       712.82       820.82
  855      713.212       816.58
  856      713.604        813.1
  857      713.995       809.42
  858      714.387        805.8
  859      714.779       802.58
  860       715.17       799.12
  861      715.562       795.46
  862      715.953       792.52
  863      716.344       789.66
  864      716.735       786.42
  865      717.127       782.94
  866      717.517       779.16
  867      717.908       775.16
  868      718.299       771.96
  869       718.69       769.26
  870       719.08       765.92
  871      719.471       762.66
  872      719.861        759.7
  873      720.251        756.6
  874      720.641       753.06
  875      721.031       749.84
  876      721.421       746.62
  877      721.811       743.02
  878      722.201       739.12
  879       722.59        736.1
  880       722.98        733.3
  881      723.369        730.4
  882      723.759       727.98
  883      724.148       725.78
  884      724.537        723.5
  885      724.926        721.5
  886      725.315       719.32
  887      725.704        716.8
  888      726.092       714.46
  889      726.481        712.1
  890       726.87       709.34
  891      727.258       706.76
  892      727.646       704.34
  893      728.034        702.1
  894      728.423        699.9
  895      728.811       698.26
  896      729.198       697.12
  897      729.586       696.46
  898      729.974       695.72
  899      730.362       694.64
  900      730.749       693.54
  901      731.136       691.96
  902      731.524       689.54
  903      731.911       687.04
  904      732.298       685.24
  905      732.685       684.02
  906      733.072        683.3
  907      733.459       682.62
  908      733.845        681.3
  909      734.232       679.56
  910      734.618       677.44
  911      735.005       675.28
  912      735.391       673.56
  913      735.777       672.58
  914      736.163       671.16
  915      736.549       669.32
  916      736.935       667.88
  917      737.321       667.14
  918      737.706        666.8
  919      738.092        666.7
  920      738.477       666.38
  921      738.863       665.48
  922      739.248       664.04
  923      739.633       661.84
  924      740.018       659.66
  925      740.403       657.92
  926      740.788       656.34
  927      741.173        654.5
  928      741.557       653.04
  929      741.942        652.1
  930      742.326        651.2
  931      742.711       650.66
  932      743.095        650.5
  933      743.479       650.84
  934      743.863        650.6
  935      744.247       649.72
  936      744.631       648.26
  937      745.015       646.72
  938      745.398       644.86
  939      745.782        643.3
  940      746.165       642.44
  941      746.548       642.06
  942      746.932       641.34
  943      747.315       640.08
  944      747.698       639.04
  945      748.081       638.24
  946      748.463       637.12
  947      748.846       636.06
  948      749.229       635.16
  949      749.611       634.38
  950      749.993       634.02
  951      750.376       634.14
  952      750.758       634.06
  953       751.14       633.56
  954      751.522       632.56
  955      751.904       630.94
  956      752.285          629
  957      752.667       627.56
  958      753.049        626.7
  959       753.43       626.04
  960      753.811       625.44
  961      754.193       624.64
  962      754.574        623.7
  963      754.955       622.74
  964      755.336       621.66
  965      755.717       620.66
  966      756.097        619.8
  967      756.478       619.36
  968      756.858       619.76
  969      757.239       620.44
  970      757.619       620.36
  971      757.999       619.86
  972      758.379       619.32
  973      758.759       618.26
  974      759.139       617.16
  975      759.519        616.7
  976      759.899       616.72
  977      760.278        616.3
  978      760.658       615.64
  979      761.037       614.76
  980      761.417       613.78
  981      761.796       613.06
  982      762.175       612.72
  983      762.554        612.7
  984      762.933        613.4
  985      763.311        613.8
  986       763.69        613.4
  987      764.068       612.78
  988      764.447       611.86
  989      764.825        610.5
  990      765.203       609.44
  991      765.582       609.02
  992       765.96       609.02
  993      766.338       609.22
  994      766.715        609.1
  995      767.093       608.84
  996      767.471        608.6
  997      767.848       608.32
  998      768.226       607.88
  999      768.603       607.42
 1000       768.98       606.92
 1001      769.357       606.24
 1002      769.734        605.5
 1003      770.111       604.74
 1004      770.488       604.62
 1005      770.864        605.2
 1006      771.241       605.94
 1007      771.617       606.18
 1008      771.994       606.04
 1009       772.37       605.14
 1010      772.746       603.88
 1011      773.122       602.66
 1012      773.498       601.72
 1013      773.874       600.72
 1014       774.25       599.78
 1015      774.625       599.02
 1016      775.001       598.08
 1017      775.376       597.42
 1018      775.751       597.68
 1019      776.127       598.42
 1020      776.502       598.88
 1021      776.877        599.4
 1022      777.252       599.78
 1023      777.626       599.68
 1024      778.001       599.18
 1025      778.375          599
 1026       778.75       599.12
 1027      779.124       598.82
 1028      779.499       598.32
 1029      779.873       598.12
 1030      780.247       597.88
 1031      780.621       597.48
 1032      780.994       597.24
 1033      781.368       597.52
 1034      781.742       597.76
 1035      782.115       597.14
 1036      782.489        596.6
 1037      782.862        596.2
 1038      783.235        595.3
 1039      783.608       593.96
 1040      783.981       592.68
 1041      784.354       591.24
 1042      784.727       590.42
 1043        785.1       590.16
 1044      785.472       590.48
 1045      785.845        591.5
 1046      786.217       592.44
 1047      786.589        592.9
 1048      786.961       593.56
 1049      787.333        593.9
 1050      787.705        593.7
 1051      788.077       593.88
 1052      788.449       593.66
 1053       788.82       592.66
 1054      789.192        591.9
 1055      789.563       591.82
 1056      789.934        591.3
 1057      790.306       590.42
 1058      790.677        589.7
 1059      791.048       588.84
 1060      791.419       587.86
 1061      791.789       586.76
 1062       792.16       585.96
 1063       792.53       585.62
 1064      792.901        585.8
 1065      793.271       585.96
 1066      793.641       586.04
 1067      794.012       586.56
 1068      794.382       587.26
 1069      794.751       587.48
 1070      795.121       587.58
 1071      795.491       588.14
 1072      795.861       588.58
 1073       796.23        588.2
 1074      796.599       587.78
 1075      796.969       587.24
 1076      797.338       586.58
 1077      797.707       585.88
 1078      798.076       585.74
 1079      798.445        585.7
 1080      798.813       585.94
 1081      799.182       586.18
 1082       799.55       586.12
 1083      799.919       586.06
 1084      800.287       585.86
 1085      800.655        585.4
 1086      801.023        585.2
 1087      801.391        585.3
 1088      801.759       585.04
 1089      802.127        585.1
 1090      802.495       585.36
 1091      802.862       585.56
 1092       803.23       585.58
 1093      803.597       585.64
 1094      803.964       585.66
 1095      804.331       585.24
 1096      804.698       584.46
 1097      805.065       583.96
 1098      805.432       583.66
 1099      805.799       583.38
 1100      806.165       583.62
 1101      806.532       584.32
 1102      806.898       584.94
 1103      807.264       585.56
 1104      807.631       586.02
 1105      807.997       586.36
 1106      808.363       586.78
 1107      808.728       586.94
 1108      809.094       586.62
 1109       809.46        586.2
 1110      809.825       585.48
 1111      810.191       584.32
 1112      810.556       583.46
 1113      810.921       582.68
 1114      811.286        582.1
 1115      811.651       582.12
 1116      812.016       582.02
 1117      812.381       581.94
 1118      812.745       582.34
 1119       813.11       582.52
 1120      813.474       582.68
 1121      813.839       583.62
 1122      814.203       584.78
 1123      814.567       585.28
 1124      814.931       585.36
 1125      815.295       585.06
 1126      815.659       584.64
 1127      816.022       584.18
 1128      816.386       583.86
 1129      816.749       583.98
 1130      817.113       584.04
 1131      817.476       583.66
 1132      817.839       583.22
 1133      818.202       583.24
 1134      818.565       583.24
 1135      818.928       583.18
 1136      819.291        582.9
 1137      819.653        582.6
 1138      820.016       581.86
 1139      820.378       581.22
 1140       820.74       581.32
 1141      821.102       581.78
 1142      821.464       582.26
 1143      821.826       582.76
 1144      822.188       582.86
 1145       822.55        582.4
 1146      822.912       582.08
 1147      823.273          582
 1148      823.634       582.06
 1149      823.996       582.22
 1150      824.357       582.06
 1151      824.718       581.58
 1152      825.079       581.08
 1153       825.44       581.36
 1154      825.801       582.22
 1155      826.161       583.42
 1156      826.522       584.54
 1157      826.882        584.9
 1158      827.242       584.66
 1159      827.603        584.5
 1160      827.963        584.4
 1161      828.323       584.24
 1162      828.682       584.04
 1163      829.042       584.04
 1164      829.402       583.92
 1165      829.761       583.48
 1166      830.121       582.94
 1167       830.48        582.9
 1168      830.839       582.76
 1169      831.198       582.36
 1170      831.557       582.46
 1171      831.916       583.16
 1172      832.275          584
 1173      832.634       584.24
 1174      832.992       583.98
 1175      833.351        583.5
 1176      833.709       582.68
 1177      834.067       581.62
 1178      834.425       581.22
 1179      834.783       581.54
 1180      835.141       581.98
 1181      835.499       582.62
 1182      835.857       582.86
 1183      836.214       582.86
 1184      836.572       582.56
 1185      836.929       581.88
 1186      837.286       580.98
 1187      837.644        580.7
 1188      838.001       580.52
 1189      838.357       580.22
 1190      838.714       580.06
 1191      839.071       579.94
 1192      839.428       579.68
 1193      839.784        579.6
 1194       840.14        579.9
 1195      840.497       580.06
 1196      840.853        579.8
 1197      841.209       579.34
 1198      841.565       579.16
 1199       841.92       579.22
 1200      842.276        579.5
 1201      842.632       579.72
 1202      842.987        579.9
 1203      843.343       579.74
 1204      843.698        579.3
 1205      844.053       579.14
 1206      844.408       579.68
 1207      844.763       579.72
 1208      845.118       579.24
 1209      845.472       578.72
 1210      845.827        578.1
 1211      846.181       577.42
 1212      846.536       577.72
 1213       846.89       578.62
 1214      847.244       579.14
 1215      847.598        579.3
 1216      847.952       579.04
 1217      848.306       578.84
 1218       848.66       578.54
 1219      849.013       578.32
 1220      849.367       578.32
 1221       849.72       578.96
 1222      850.073       579.48
 1223      850.427        579.3
 1224       850.78       579.38
 1225      851.133       579.36
 1226      851.485          579
 1227      851.838        578.3
 1228      852.191       578.38
 1229      852.543       578.76
 1230      852.896       579.36
 1231      853.248       579.66
 1232        853.6       580.36
 1233      853.952       580.92
 1234      854.304          581
 1235      854.656       580.88
 1236      855.007       581.14
 1237      855.359       581.36
 1238       855.71        581.5
 1239      856.062          582
 1240      856.413       582.42
 1241      856.764       582.94
 1242      857.115       583.42
 1243      857.466       583.66
 1244      857.817        583.6
 1245      858.168       583.82
 1246      858.518        583.6
 1247      858.869       583.04
 1248      859.219        582.7
 1249      859.569       582.16
 1250       859.92       581.32
 1251       860.27       580.78
 1252      860.619       580.28
 1253      860.969       580.22
 1254      861.319       580.68
 1255      861.669       581.38
 1256      862.018       582.26
 1257      862.367        582.8
 1258      862.717       582.56
 1259      863.066       581.78
 1260      863.415       580.78
 1261      863.764       580.04
 1262      864.112       580.32
 1263      864.461       580.84
 1264       864.81        581.2
 1265      865.158       581.84
 1266      865.507        582.2
 1267      865.855       581.98
 1268      866.203       581.52
 1269      866.551       581.36
 1270      866.899       580.96
 1271      867.247       580.38
 1272      867.594       579.92
 1273      867.942        579.6
 1274      868.289       579.38
 1275      868.637       579.38
 1276      868.984       579.12
 1277      869.331       578.82
 1278      869.678       578.94
 1279      870.025       579.08
 1280      870.372       579.12
 1281      870.718       579.48
 1282      871.065       579.52
 1283      871.411       579.16
 1284      871.758       578.98
 1285      872.104       579.14
 1286       872.45        579.4
 1287      872.796       579.84
 1288      873.142       579.84
 1289      873.488       579.26
 1290      873.833       578.48
 1291      874.179        577.7
 1292      874.524          577
 1293      874.869       577.24
 1294      875.215        578.3
 1295       875.56       578.72
 1296      875.905       578.64
 1297       876.25       578.76
 1298      876.594       578.66
 1299      876.939       578.26
 1300      877.283        578.5
 1301      877.628       579.04
 1302      877.972       578.82
 1303      878.316       578.34
 1304       878.66       577.96
 1305      879.004        577.9
 1306      879.348       578.44
 1307      879.692       579.38
 1308      880.035        580.3
 1309      880.379        580.9
 1310      880.722       580.78
 1311      881.066          580
 1312      881.409        579.4
 1313      881.752       579.34
 1314      882.095        579.9
 1315      882.438       580.44
 1316       882.78       580.78
 1317      883.123          581
 1318      883.465       580.58
 1319      883.808        579.5
 1320       884.15       578.26
 1321      884.492       577.18
 1322      884.834       576.46
 1323      885.176       575.84
 1324      885.518       575.86
 1325      885.859       576.86
 1326      886.201       577.94
 1327      886.542        578.4
 1328      886.884       579.16
 1329      887.225       579.76
 1330      887.566       579.44
 1331      887.907       579.18
 1332      888.248       579.68
 1333      888.589       579.98
 1334      888.929       579.62
 1335       889.27       579.36
 1336       889.61       578.96
 1337      889.951       578.32
 1338      890.291        577.9
 1339      890.631       577.84
 1340      890.971       577.92
 1341      891.311        578.2
 1342       891.65       578.06
 1343       891.99       577.68
 1344      892.329       577.54
 1345      892.669       577.74
 1346      893.008       577.54
 1347      893.347       577.58
 1348      893.686       577.58
 1349      894.025       577.12
 1350      894.364        576.4
 1351      894.703       576.26
 1352      895.041       576.02
 1353       895.38       575.76
 1354      895.718       575.96
 1355      896.056       577.02
 1356      896.395       577.98
 1357      896.733        578.5
 1358      897.071       579.08
 1359      897.408       579.84
 1360      897.746       580.14
 1361      898.084       580.04
 1362      898.421       580.88
 1363      898.758       581.74
 1364      899.095       581.56
 1365      899.433        580.8
 1366       899.77       580.46
 1367      900.106        579.7
 1368      900.443        578.8
 1369       900.78       578.46
 1370      901.116       578.34
 1371      901.453        578.2
 1372      901.789       578.12
 1373      902.125        578.2
 1374      902.461       578.28
 1375      902.797        578.4
 1376      903.133       578.32
 1377      903.469       578.58
 1378      903.804       579.04
 1379       904.14       579.52
 1380      904.475       579.66
 1381       904.81       579.68
 1382      905.146       579.54
 1383      905.481       579.34
 1384      905.815       578.78
 1385       906.15        578.7
 1386      906.485       578.84
 1387      906.819       578.44
 1388      907.154          578
 1389      907.488       577.88
 1390      907.822       577.64
 1391      908.156       577.52
 1392       908.49       577.64
 1393      908.824       577.66
 1394      909.158       577.62
 1395      909.492       577.42
 1396      909.825        576.9
 1397      910.159       576.48
 1398      910.492       576.12
 1399      910.825       575.74
 1400      911.158       575.22
 1401      911.491        574.9
 1402      911.824       574.74
 1403      912.157       574.44
 1404      912.489       574.22
 1405      912.822       574.46
 1406      913.154       575.04
 1407      913.486        575.7
 1408      913.818       576.62
 1409       914.15       577.96
 1410      914.482       579.36
 1411      914.814        580.2
 1412      915.146       580.12
 1413      915.477       579.36
 1414      915.809       578.14
 1415       916.14       576.98
 1416      916.471        576.7
 1417      916.802        577.5
 1418      917.133       579.04
 1419      917.464       580.44
 1420      917.795       581.04
 1421      918.125       580.74
 1422      918.456       579.64
 1423      918.786       578.68
 1424      919.116       578.48
 1425      919.446       578.92
 1426      919.776       579.52
 1427      920.106        579.8
 1428      920.436       579.62
 1429      920.766       579.34
 1430      921.095       578.78
 1431      921.425       578.46
 1432      921.754       579.34
 1433      922.083       580.02
 1434      922.412       579.86
 1435      922.741       579.94
 1436       923.07       579.98
 1437      923.399       579.26
 1438      923.727       578.74
 1439      924.056       578.74
 1440      924.384       578.76
 1441      924.713       578.86
 1442      925.041       579.24
 1443      925.369       579.68
 1444      925.697       580.22
 1445      926.024       580.86
 1446      926.352       581.22
 1447       926.68       581.26
 1448      927.007       581.14
 1449      927.334       581.04
 1450      927.662       580.74
 1451      927.989        580.7
 1452      928.316       581.14
 1453      928.643       581.46
 1454      928.969          581
 1455      929.296       580.02
 1456      929.622       578.72
 1457      929.949       577.42
 1458      930.275        576.6
 1459      930.601       576.58
 1460      930.927       577.16
 1461      931.253       577.84
 1462      931.579       578.38
 1463      931.905       579.24
 1464       932.23       579.56
 1465      932.556       579.18
 1466      932.881       578.62
 1467      933.206       577.98
 1468      933.531       577.24
 1469      933.856       576.84
 1470      934.181       577.22
 1471      934.506       578.04
 1472       934.83       578.48
 1473      935.155       578.36
 1474      935.479        578.1
 1475      935.803        577.6
 1476      936.128       576.76
 1477      936.452       576.34
 1478      936.775       576.56
 1479      937.099       576.82
 1480      937.423       576.82
 1481      937.746       577.16
 1482       938.07       577.52
 1483      938.393       577.36
 1484      938.716       577.32
 1485      939.039        577.6
 1486      939.362       577.58
 1487      939.685       577.38
 1488      940.008        577.2
 1489      940.331       577.46
 1490      940.653       578.16
 1491      940.975       579.22
 1492      941.298       580.56
 1493       941.62       581.68
 1494      941.942       582.04
 1495      942.264       581.74
 1496      942.585       581.04
 1497      942.907       579.88
 1498      943.229       579.24
 1499       943.55       579.14
 1500      943.871       579.34
 1501      944.192       579.78
 1502      944.513       580.32
 1503      944.834       580.16
 1504      945.155       579.82
 1505      945.476       579.92
 1506      945.796       579.88
 1507      946.117       579.78
 1508      946.437       579.98
 1509      946.757       579.96
 1510      947.078       579.68
 1511      947.398       579.86
 1512      947.717        580.2
 1513      948.037        580.5
 1514      948.357        580.8
 1515      948.676       580.88
 1516      948.996       580.54
 1517      949.315       580.22
 1518      949.634       579.82
 1519      949.953        579.8
 1520      950.272       580.02
 1521      950.591        580.2
 1522      950.909       580.22
 1523      951.228          580
 1524      951.546        579.7
 1525      951.865       579.52
 1526      952.183       579.28
 1527      952.501       579.24
 1528      952.819       579.68
 1529      953.137       580.08
 1530      953.454       579.96
 1531      953.772       579.58
 1532      954.089       579.24
 1533      954.407       579.32
 1534      954.724       579.18
 1535      955.041       579.16
 1536      955.358       579.62
 1537      955.675       579.74
 1538      955.992        579.2
 1539      956.308       578.76
 1540      956.625       578.34
 1541      956.941       577.58
 1542      957.257       577.64
 1543      957.574       577.94
 1544       957.89       577.72
 1545      958.206       577.26
 1546      958.521       576.82
 1547      958.837       576.14
 1548      959.152       575.86
 1549      959.468       575.86
 1550      959.783       576.46
 1551      960.098       577.46
 1552      960.413       577.62
 1553      960.728       577.32
 1554      961.043       577.64
 1555      961.358       577.78
 1556      961.672       577.48
 1557      961.987        577.6
 1558      962.301       577.96
 1559      962.615       578.24
 1560       962.93       578.44
 1561      963.244       578.82
 1562      963.557        579.6
 1563      963.871       580.64
 1564      964.185       581.46
 1565      964.498       581.84
 1566      964.812       582.16
 1567      965.125       582.38
 1568      965.438        581.7
 1569      965.751       580.58
 1570      966.064       579.98
 1571      966.377       579.54
 1572      966.689       579.06
 1573      967.002       579.24
 1574      967.314        579.8
 1575      967.626       579.68
 1576      967.939        579.2
 1577      968.251       579.08
 1578      968.563       578.98
 1579      968.874       578.28
 1580      969.186       578.02
 1581      969.498       578.02
 1582      969.809       577.46
 1583       970.12       577.02
 1584      970.431       577.26
 1585      970.743       577.58
 1586      971.053       577.86
 1587      971.364       577.96
 1588      971.675          578
 1589      971.986       578.26
 1590      972.296       578.56
 1591      972.606       578.94
 1592      972.917       579.74
 1593      973.227       580.04
 1594      973.537       579.72
 1595      973.847       579.22
 1596      974.156       578.36
 1597      974.466       577.24
 1598      974.775       576.36
 1599      975.085       575.62
 1600      975.394       574.88
 1601      975.703       574.54
 1602      976.012       574.34
 1603      976.321       574.44
 1604       976.63       575.04
 1605      976.938       575.62
 1606      977.247       575.94
 1607      977.555        576.4
 1608      977.863        576.7
 1609      978.172        576.7
 1610       978.48        576.6
 1611      978.787       576.88
 1612      979.095        577.6
 1613      979.403       578.18
 1614       979.71        578.4
 1615      980.018       578.62
 1616      980.325        578.8
 1617      980.632        578.3
 1618      980.939       577.74
 1619      981.246       577.46
 1620      981.553       577.42
 1621       981.86       577.28
 1622      982.166       577.64
 1623      982.473       578.16
 1624      982.779       578.54
 1625      983.085       578.48
 1626      983.391       578.02
 1627      983.697       576.78
 1628      984.003       575.24
 1629      984.309       574.46
 1630      984.614       574.66
 1631       984.92       575.18
 1632      985.225       576.24
 1633       985.53       577.94
 1634      985.835       578.96
 1635       986.14       579.08
 1636      986.445       579.16
 1637       986.75          579
 1638      987.054       578.56
 1639      987.359       578.22
 1640      987.663       578.44
 1641      987.967       578.82
 1642      988.271       579.04
 1643      988.575       578.86
 1644      988.879        578.5
 1645      989.183       577.98
 1646      989.487       577.36
 1647       989.79       577.04
 1648      990.093        577.2
 1649      990.397       577.92
 1650        990.7       578.54
 1651      991.003       578.62
 1652      991.306       578.46
 1653      991.608       578.12
 1654      991.911        577.8
 1655      992.213       578.14
 1656      992.516       578.98
 1657      992.818       580.06
 1658       993.12          581
 1659      993.422       581.56
 1660      993.724       581.66
 1661      994.026       581.88
 1662      994.327        581.9
 1663      994.629       581.58
 1664       994.93       580.94
 1665      995.232       580.14
 1666      995.533        579.3
 1667      995.834       577.98
 1668      996.135       577.26
 1669      996.435       577.28
 1670      996.736       576.98
 1671      997.036       576.66
 1672      997.337        577.3
 1673      997.637       578.18
 1674      997.937       578.86
 1675      998.237       579.36
 1676      998.537       579.84
 1677      998.837        580.4
 1678      999.137       580.52
 1679      999.436        580.4
 1680      999.735       580.72
 1681      1000.03       581.18
 1682      1000.33       581.38
 1683      1000.63       581.58
 1684      1000.93       581.82
 1685      1001.23       581.92
 1686      1001.53        581.6
 1687      1001.83       580.96
 1688      1002.13        580.4
 1689      1002.42       579.58
 1690      1002.72       578.82
 1691      1003.02       578.42
 1692      1003.32       578.44
 1693      1003.62       578.82
 1694      1003.91        579.3
 1695      1004.21       579.68
 1696      1004.51       579.88
 1697      1004.81       579.78
 1698       1005.1       579.08
 1699       1005.4        578.7
 1700       1005.7       578.54
 1701      1005.99       578.36
 1702      1006.29       578.12
 1703      1006.59        578.4
 1704      1006.88       578.66
 1705      1007.18        579.2
 1706      1007.48       579.54
 1707      1007.77       579.78
 1708      1008.07       579.56
 1709      1008.36       578.86
 1710      1008.66       578.24
 1711      1008.95        577.9
 1712      1009.25       577.38
 1713      1009.55       576.88
 1714      1009.84       576.06
 1715      1010.14       575.34
 1716      1010.43       575.24
 1717      1010.73        575.7
 1718      1011.02        576.3
 1719      1011.31       577.84
 1720      1011.61       579.18
 1721       1011.9       579.52
 1722       1012.2       579.48
 1723      1012.49       579.32
 1724      1012.79       578.72
 1725      1013.08        578.2
 1726      1013.37       578.18
 1727      1013.67       578.24
 1728      1013.96       578.64
 1729      1014.25       578.84
 1730      1014.55       578.46
 1731      1014.84       577.92
 1732      1015.13       577.62
 1733      1015.42       577.32
 1734      1015.72       577.44
 1735      1016.01       577.76
 1736       1016.3       577.68
 1737      1016.59        577.4
 1738      1016.89       577.12
 1739      1017.18       576.94
 1740      1017.47       576.84
 1741      1017.76       576.98
 1742      1018.05       577.18
 1743      1018.35       577.02
 1744      1018.64       576.54
 1745      1018.93       576.36
 1746      1019.22       576.58
 1747      1019.51       576.84
 1748       1019.8       576.98
 1749      1020.09       576.88
 1750      1020.38       576.66
 1751      1020.67       576.46
 1752      1020.96          576
 1753      1021.25        575.6
 1754      1021.54       575.72
 1755      1021.83       575.58
 1756      1022.12       575.48
 1757      1022.41       576.14
 1758       1022.7       577.18
 1759      1022.99        577.7
 1760      1023.28       577.94
 1761      1023.57       577.78
 1762      1023.86       577.36
 1763      1024.15       577.16
 1764      1024.44       577.16
 1765      1024.73       577.16
 1766      1025.02       577.52
 1767       1025.3       577.84
 1768      1025.59        577.7
 1769      1025.88       577.48
 1770      1026.17        577.6
 1771      1026.46       577.64
 1772      1026.74       577.34
 1773      1027.03       577.28
 1774      1027.32       577.72
 1775      1027.61       578.02
 1776      1027.89        577.9
 1777      1028.18       578.16
 1778      1028.47       578.72
 1779      1028.76       579.02
 1780      1029.04       578.92
 1781      1029.33       578.66
 1782      1029.62        578.4
 1783       1029.9       577.82
 1784      1030.19        577.7
 1785      1030.47        578.2
 1786      1030.76       578.96
 1787      1031.05       579.14
 1788      1031.33       579.14
 1789      1031.62       578.92
 1790       1031.9       578.66
 1791      1032.19       578.96
 1792      1032.47       579.62
 1793      1032.76       579.82
 1794      1033.04       579.64
 1795      1033.33       579.06
 1796      1033.61        578.3
 1797       1033.9       577.84
 1798      1034.18       577.82
 1799      1034.47       577.92
 1800      1034.75       578.88
 1801      1035.04       579.62
 1802      1035.32       579.92
 1803       1035.6       580.28
 1804      1035.89       580.38
 1805      1036.17        579.4
 1806      1036.45       577.94
 1807      1036.74       576.46
 1808      1037.02       575.18
 1809       1037.3       574.46
 1810      1037.59       574.52
 1811      1037.87       575.42
 1812      1038.15       576.96
 1813      1038.44       578.28
 1814      1038.72       578.74
 1815         1039        578.8
 1816      1039.28       578.96
 1817      1039.56       578.58
 1818      1039.85       578.28
 1819      1040.13       578.64
 1820      1040.41       579.14
 1821      1040.69       579.04
 1822      1040.97        578.8
 1823      1041.25       578.44
 1824      1041.54       577.86
 1825      1041.82       577.32
 1826       1042.1       577.12
 1827      1042.38       577.42
 1828      1042.66       577.52
 1829      1042.94       577.36
 1830      1043.22       577.46
 1831       1043.5        577.5
 1832      1043.78       576.94
 1833      1044.06       576.56
 1834      1044.34       576.54
 1835      1044.62       576.06
 1836       1044.9       575.52
 1837      1045.18       575.62
 1838      1045.46       576.06
 1839      1045.74       576.58
 1840      1046.02          577
 1841       1046.3       577.06
 1842      1046.58       576.76
 1843      1046.85       576.14
 1844      1047.13       575.18
 1845      1047.41       574.72
 1846      1047.69       575.38
 1847      1047.97       576.38
 1848      1048.25       576.86
 1849      1048.52       577.22
 1850       1048.8       577.46
 1851      1049.08       577.14
 1852      1049.36       576.68
 1853      1049.63       576.82
 1854      1049.91       577.46
 1855      1050.19       577.82
 1856      1050.47        577.3
 1857      1050.74       576.46
 1858      1051.02       576.32
 1859       1051.3       576.34
 1860      1051.57       576.48
 1861      1051.85       577.52
 1862      1052.13       578.78
 1863       1052.4       578.94
 1864      1052.68       578.56
 1865      1052.95       578.06
 1866      1053.23       577.66
 1867      1053.51       577.36
 1868      1053.78       576.84
 1869      1054.06       576.34
 1870      1054.33       576.04
 1871      1054.61       575.36
 1872      1054.88       574.84
 1873      1055.16       575.38
 1874      1055.43       575.92
 1875      1055.71       576.28
 1876      1055.98       576.68
 1877      1056.25       576.62
 1878      1056.53       575.94
 1879       1056.8       575.42
 1880      1057.08       575.42
 1881      1057.35        575.8
 1882      1057.62        576.1
 1883       1057.9       576.32
 1884      1058.17        576.2
 1885      1058.45       575.84
 1886      1058.72       575.16
 1887      1058.99       574.48
 1888      1059.26       574.46
 1889      1059.54       575.08
 1890      1059.81       575.62
 1891      1060.08       576.14
 1892      1060.35       576.64
 1893      1060.63        576.5
 1894       1060.9       576.16
 1895      1061.17          576
 1896      1061.44          576
 1897      1061.71       576.32
 1898      1061.99       577.06
 1899      1062.26        577.9
 1900      1062.53       578.26
 1901       1062.8       578.26
 1902      1063.07       577.98
 1903      1063.34       577.32
 1904      1063.61       576.56
 1905      1063.88       575.86
 1906      1064.15       575.08
 1907      1064.42        574.5
 1908       1064.7       574.24
 1909      1064.97       574.06
 1910      1065.24       574.32
 1911      1065.51       574.96
 1912      1065.78        575.2
 1913      1066.04        575.2
 1914      1066.31       575.06
 1915      1066.58       574.92
 1916      1066.85       574.96
 1917      1067.12        575.4
 1918      1067.39       575.72
 1919      1067.66       575.84
 1920      1067.93       575.86
 1921       1068.2       575.62
 1922      1068.47        575.5
 1923      1068.73       575.86
 1924         1069       576.44
 1925      1069.27       576.78
 1926      1069.54          577
 1927      1069.81       576.96
 1928      1070.07       576.52
 1929      1070.34       576.64
 1930      1070.61       577.08
 1931      1070.88       577.56
 1932      1071.14       577.88
 1933      1071.41       578.16
 1934      1071.68       577.96
 1935      1071.94       577.24
 1936      1072.21       576.54
 1937      1072.48        576.6
 1938      1072.74        577.3
 1939      1073.01       577.94
 1940      1073.28       578.62
 1941      1073.54        579.3
 1942      1073.81       579.46
 1943      1074.07       578.68
 1944      1074.34       577.76
 1945       1074.6       577.12
 1946      1074.87        576.4
 1947      1075.13       575.68
 1948       1075.4        575.5
 1949      1075.66       575.86
 1950      1075.93       576.38
 1951      1076.19       576.16
 1952      1076.46       575.56
 1953      1076.72        575.9
 1954      1076.99       576.42
 1955      1077.25       576.46
 1956      1077.52       576.98
 1957      1077.78       577.86
 1958      1078.04       577.56
 1959      1078.31        576.4
 1960      1078.57       575.46
 1961      1078.83       574.92
 1962       1079.1        574.4
 1963      1079.36       574.38
 1964      1079.62       574.78
 1965      1079.89       575.08
 1966      1080.15       575.52
 1967      1080.41       576.28
 1968      1080.67        576.6
 1969      1080.94       576.96
 1970       1081.2       577.46
 1971      1081.46       577.94
 1972      1081.72       578.26
 1973      1081.98        578.6
 1974      1082.24       578.58
 1975      1082.51        578.2
 1976      1082.77       577.62
 1977      1083.03        576.9
 1978      1083.29       576.14
 1979      1083.55       575.84
 1980      1083.81       576.04
 1981      1084.07       576.42
 1982      1084.33       576.82
 1983      1084.59       577.18
 1984      1084.85       577.36
 1985      1085.11       577.52
 1986      1085.37       577.38
 1987      1085.63       577.46
 1988      1085.89       577.82
 1989      1086.15       577.52
 1990      1086.41       576.74
 1991      1086.67       576.28
 1992      1086.93       576.04
 1993      1087.19       576.06
 1994      1087.45        576.6
 1995      1087.71       577.68
 1996      1087.97       578.54
 1997      1088.23       578.88
 1998      1088.48       578.84
 1999      1088.74       578.82
 2000         1089        578.3
 2001      1089.26       577.64
 2002      1089.52        576.7
 2003      1089.77       575.72
 2004      1090.03       575.04
 2005      1090.29       574.94
 2006      1090.55        574.6
 2007       1090.8       574.58
 2008      1091.06       574.94
 2009      1091.32       574.98
 2010      1091.57       574.76
 2011      1091.83       575.32
 2012      1092.09       576.02
 2013      1092.34          576
 2014       1092.6       575.96
 2015      1092.86       576.42
 2016      1093.11       576.66
 2017      1093.37       576.82
 2018      1093.62       577.32
 2019      1093.88       577.76
 2020      1094.13       577.96
 2021      1094.39       577.94
 2022      1094.65        578.3
 2023       1094.9       578.72
 2024      1095.16       579.06
 2025      1095.41        579.2
 2026      1095.66       579.26
 2027      1095.92       579.04
 2028      1096.17        578.6
 2029      1096.43       577.96
 2030      1096.68       577.44
 2031      1096.94       577.42
 2032      1097.19       577.44
 2033      1097.44        577.8
 2034       1097.7       578.78
 2035      1097.95          579
 2036       1098.2       578.16
 2037      1098.46       577.46
 2038      1098.71       577.12
 2039      1098.96        576.3
 2040      1099.22       575.86
 2041      1099.47        576.2
 2042      1099.72       576.42
 2043      1099.97       576.28
 2044      1100.23       576.52
 2045      1100.48       577.92
 2046      1100.73      578.475
 2047      1100.98      579.133
