scansci Spectrometer Data File
--- Measurement Setting ---
Type: Sample Spectrum
Date: Mon Oct 16 17:56:55 2023
User: (Reserved by scansci)
Serial: (Reserved by scansci)
Channel: No. 11
Integration Time: 1
Average: 10
Boxcar: 2
Electrical Dark: No-corrected
Time Normalize: (Reserved by scansci)
Dual-beam: (Reserved by scansci)
Reference Ch: (Reserved by scansci)
--- Measurement Data ---
Pixel   Wavelength   Intensity
    0        344.4        610.4
    1      344.867       610.65
    2      345.334       610.64
    3      345.801        610.1
    4      346.268       609.12
    5      346.735       608.16
    6      347.202       607.36
    7      347.669        606.7
    8      348.135       606.54
    9      348.602       607.18
   10      349.068       608.06
   11      349.535       608.12
   12      350.001       607.86
   13      350.467       608.02
   14      350.933        607.6
   15      351.399       606.82
   16      351.866       606.58
   17      352.331        606.7
   18      352.797       606.52
   19      353.263       606.22
   20      353.729       605.98
   21      354.194       605.78
   22       354.66       605.82
   23      355.126        605.7
   24      355.591       605.94
   25      356.056        606.2
   26      356.522        606.2
   27      356.987       606.12
   28      357.452       605.78
   29      357.917       605.08
   30      358.382       604.64
   31      358.847       604.72
   32      359.312       605.52
   33      359.776       607.22
   34      360.241        609.2
   35      360.706       610.72
   36       361.17       611.52
   37      361.634       611.12
   38      362.099       609.66
   39      362.563       608.04
   40      363.027       606.88
   41      363.491        606.7
   42      363.955       607.14
   43      364.419       607.94
   44      364.883       609.26
   45      365.347       610.32
   46      365.811       610.38
   47      366.274       609.98
   48      366.738        609.6
   49      367.201       609.22
   50      367.665       608.84
   51      368.128       608.62
   52      368.592       608.14
   53      369.055       607.94
   54      369.518       607.84
   55      369.981       607.86
   56      370.444       607.68
   57      370.907       607.52
   58       371.37       607.28
   59      371.832       606.88
   60      372.295       606.52
   61      372.757       607.04
   62       373.22       607.98
   63      373.682        608.2
   64      374.145        608.2
   65      374.607       607.98
   66      375.069       607.26
   67      375.531        606.9
   68      375.993       607.64
   69      376.455       608.18
   70      376.917       608.86
   71      377.379       609.62
   72      377.841        609.5
   73      378.302          609
   74      378.764        608.8
   75      379.225        608.4
   76      379.687        608.1
   77      380.148       608.36
   78      380.609       608.16
   79      381.071       607.66
   80      381.532        606.9
   81      381.993       605.44
   82      382.454       604.16
   83      382.915       603.96
   84      383.375       603.98
   85      383.836        604.3
   86      384.297       605.16
   87      384.757        605.9
   88      385.218       606.38
   89      385.678       607.32
   90      386.138       608.66
   91      386.599       610.18
   92      387.059        611.5
   93      387.519       612.02
   94      387.979       611.98
   95      388.439       611.76
   96      388.899       611.16
   97      389.358       610.76
   98      389.818       610.86
   99      390.278       611.06
  100      390.737        611.4
  101      391.197        612.4
  102      391.656       612.74
  103      392.115       612.28
  104      392.575       611.38
  105      393.034       610.48
  106      393.493       609.26
  107      393.952       608.32
  108      394.411       607.96
  109       394.87        608.2
  110      395.328       608.24
  111      395.787       608.32
  112      396.246       608.62
  113      396.704       608.88
  114      397.163       609.32
  115      397.621       609.98
  116      398.079       610.44
  117      398.537       610.92
  118      398.995       611.28
  119      399.454       610.72
  120      399.911        609.2
  121      400.369       607.68
  122      400.827       606.58
  123      401.285       606.62
  124      401.743        607.6
  125        402.2       608.68
  126      402.658       609.54
  127      403.115       610.22
  128      403.572       610.02
  129       404.03        609.2
  130      404.487       608.68
  131      404.944       608.26
  132      405.401       607.62
  133      405.858       606.76
  134      406.315       606.22
  135      406.771       606.48
  136      407.228       607.02
  137      407.685        607.6
  138      408.141       608.54
  139      408.598       609.46
  140      409.054       609.64
  141       409.51       609.86
  142      409.967       609.76
  143      410.423       609.42
  144      410.879       608.88
  145      411.335       608.42
  146      411.791       608.02
  147      412.246       607.62
  148      412.702       607.36
  149      413.158       607.38
  150      413.613       607.84
  151      414.069        608.4
  152      414.524          609
  153       414.98       609.06
  154      415.435       608.64
  155       415.89          608
  156      416.345        607.3
  157        416.8       606.76
  158      417.255       606.68
  159       417.71       606.76
  160      418.165       606.84
  161      418.619       606.96
  162      419.074       607.54
  163      419.529       608.72
  164      419.983       610.16
  165      420.437       611.14
  166      420.892       611.52
  167      421.346       610.98
  168        421.8       609.38
  169      422.254        607.9
  170      422.708       607.32
  171      423.162       606.84
  172      423.616       606.42
  173       424.07       607.16
  174      424.523       608.46
  175      424.977       609.38
  176       425.43       610.48
  177      425.884       611.74
  178      426.337        612.4
  179       426.79        612.1
  180      427.243       611.28
  181      427.697        610.2
  182       428.15       609.28
  183      428.602       608.36
  184      429.055       607.66
  185      429.508       607.52
  186      429.961       607.68
  187      430.413        607.9
  188      430.866       608.08
  189      431.318        608.1
  190      431.771        608.2
  191      432.223       607.94
  192      432.675       607.36
  193      433.127       606.58
  194      433.579          606
  195      434.031       605.46
  196      434.483        605.4
  197      434.935        605.8
  198      435.387       606.26
  199      435.838       606.58
  200       436.29       606.78
  201      436.741       607.04
  202      437.193       607.06
  203      437.644       606.84
  204      438.095       606.74
  205      438.546       606.58
  206      438.997        606.2
  207      439.448       605.72
  208      439.899       605.84
  209       440.35       606.52
  210      440.801        607.1
  211      441.251       607.36
  212      441.702       607.84
  213      442.152       608.08
  214      442.603        607.7
  215      443.053       607.02
  216      443.503       606.48
  217      443.954       606.16
  218      444.404        605.9
  219      444.854       605.58
  220      445.304       605.86
  221      445.753       606.54
  222      446.203       607.06
  223      446.653       607.38
  224      447.102        608.1
  225      447.552       609.16
  226      448.001       609.52
  227      448.451       609.08
  228        448.9       608.64
  229      449.349       608.12
  230      449.798       606.66
  231      450.247       605.62
  232      450.696       605.82
  233      451.145       606.24
  234      451.594        606.5
  235      452.042       607.52
  236      452.491       608.54
  237      452.939       608.64
  238      453.388        608.8
  239      453.836          609
  240      454.285       608.44
  241      454.733       607.36
  242      455.181        606.7
  243      455.629       606.22
  244      456.077       605.94
  245      456.525          606
  246      456.972       606.46
  247       457.42       606.94
  248      457.868       607.22
  249      458.315       606.94
  250      458.763        606.5
  251       459.21       606.28
  252      459.657       606.28
  253      460.104       606.38
  254      460.552       606.84
  255      460.999       607.38
  256      461.446       607.56
  257      461.892       607.42
  258      462.339       607.38
  259      462.786       607.46
  260      463.233        607.5
  261      463.679       607.92
  262      464.125       608.64
  263      464.572       608.88
  264      465.018       608.76
  265      465.464       608.48
  266       465.91       607.88
  267      466.356       607.18
  268      466.802       606.66
  269      467.248       606.42
  270      467.694       606.86
  271       468.14       607.74
  272      468.585       608.38
  273      469.031       608.36
  274      469.476       608.46
  275      469.922       608.06
  276      470.367       607.56
  277      470.812        607.4
  278      471.257       607.82
  279      471.702       608.14
  280      472.147       608.54
  281      472.592       608.52
  282      473.037       608.22
  283      473.482       608.08
  284      473.926       607.82
  285      474.371       607.58
  286      474.815        607.8
  287      475.259       608.06
  288      475.704       607.84
  289      476.148       607.52
  290      476.592       607.14
  291      477.036       606.32
  292       477.48        605.3
  293      477.924        605.1
  294      478.368       605.52
  295      478.811       605.84
  296      479.255        606.3
  297      479.698       607.08
  298      480.142        607.5
  299      480.585       607.02
  300      481.028       606.18
  301      481.472       605.22
  302      481.915       604.62
  303      482.358       604.32
  304      482.801       604.48
  305      483.244       605.26
  306      483.686        605.7
  307      484.129       605.24
  308      484.572       604.74
  309      485.014        604.6
  310      485.456       604.52
  311      485.899       605.16
  312      486.341       606.62
  313      486.783        607.7
  314      487.225          608
  315      487.667       608.12
  316      488.109       608.12
  317      488.551       607.58
  318      488.993       607.14
  319      489.434       607.06
  320      489.876       606.84
  321      490.318        606.7
  322      490.759       607.34
  323        491.2        608.3
  324      491.641        608.6
  325      492.083        608.3
  326      492.524       607.82
  327      492.965       606.98
  328      493.406       606.24
  329      493.846       606.14
  330      494.287       606.54
  331      494.728       607.06
  332      495.168       607.34
  333      495.609       607.16
  334      496.049        606.7
  335      496.489          606
  336       496.93       605.12
  337       497.37        604.8
  338       497.81       605.08
  339       498.25       605.64
  340       498.69       606.42
  341      499.129       607.26
  342      499.569       607.88
  343      500.009       607.84
  344      500.448        607.7
  345      500.888       607.58
  346      501.327       607.68
  347      501.766        607.6
  348      502.206       607.24
  349      502.645       606.68
  350      503.084       606.14
  351      503.523       605.74
  352      503.961       605.74
  353        504.4       606.06
  354      504.839       605.94
  355      505.277       605.84
  356      505.716       606.02
  357      506.154       606.16
  358      506.593       606.82
  359      507.031       607.84
  360      507.469       608.56
  361      507.907        608.7
  362      508.345        608.1
  363      508.783       607.12
  364      509.221       606.44
  365      509.659       606.24
  366      510.096        606.5
  367      510.534       607.02
  368      510.971       607.56
  369      511.409       607.96
  370      511.846       607.54
  371      512.283        606.4
  372       512.72       605.64
  373      513.157       605.16
  374      513.594       604.74
  375      514.031       604.68
  376      514.468       605.22
  377      514.905       605.88
  378      515.341       606.02
  379      515.778       605.58
  380      516.214       605.34
  381       516.65       605.16
  382      517.087       604.64
  383      517.523       603.64
  384      517.959       603.66
  385      518.395       604.14
  386      518.831       604.36
  387      519.267       604.54
  388      519.702        605.6
  389      520.138        606.5
  390      520.574        607.4
  391      521.009       608.32
  392      521.444       608.58
  393       521.88        608.7
  394      522.315       608.72
  395       522.75       608.68
  396      523.185       608.96
  397       523.62       609.64
  398      524.055        609.8
  399       524.49       610.18
  400      524.924       610.76
  401      525.359       610.68
  402      525.794        610.1
  403      526.228       609.52
  404      526.662       608.68
  405      527.097       607.42
  406      527.531       606.12
  407      527.965       605.68
  408      528.399       605.68
  409      528.833       605.78
  410      529.267       605.96
  411        529.7       606.34
  412      530.134       606.42
  413      530.568       606.48
  414      531.001       606.72
  415      531.434       606.96
  416      531.868       607.42
  417      532.301       608.16
  418      532.734       608.46
  419      533.167       608.16
  420        533.6       607.88
  421      534.033       607.28
  422      534.466       606.44
  423      534.898       606.36
  424      535.331       606.88
  425      535.763        607.2
  426      536.196       607.98
  427      536.628       609.04
  428       537.06       609.34
  429      537.493       609.38
  430      537.925       609.66
  431      538.357        609.6
  432      538.788       608.94
  433       539.22       608.46
  434      539.652       608.28
  435      540.084       608.16
  436      540.515       607.94
  437      540.947       607.96
  438      541.378       608.54
  439      541.809        609.2
  440       542.24       609.54
  441      542.672        609.8
  442      543.103       609.92
  443      543.533        609.4
  444      543.964       608.36
  445      544.395       607.46
  446      544.826        607.1
  447      545.256       607.38
  448      545.687          608
  449      546.117       608.66
  450      546.547        609.3
  451      546.978       609.66
  452      547.408       609.46
  453      547.838       609.18
  454      548.268       609.02
  455      548.698       608.78
  456      549.127       608.48
  457      549.557       608.16
  458      549.987       608.28
  459      550.416       608.74
  460      550.846       608.88
  461      551.275       608.82
  462      551.704       609.22
  463      552.133       608.52
  464      552.562       607.02
  465      552.991        606.2
  466       553.42       605.98
  467      553.849       605.74
  468      554.278       606.26
  469      554.706        606.9
  470      555.135       606.86
  471      555.563       606.56
  472      555.991       606.34
  473       556.42       606.32
  474      556.848       607.06
  475      557.276        607.9
  476      557.704       608.68
  477      558.132       609.28
  478       558.56       609.12
  479      558.987       608.34
  480      559.415       608.02
  481      559.843       607.66
  482       560.27       607.42
  483      560.697       607.46
  484      561.125       607.92
  485      561.552       608.02
  486      561.979       607.38
  487      562.406       606.52
  488      562.833       605.94
  489       563.26       605.08
  490      563.686        604.7
  491      564.113        604.9
  492       564.54       604.58
  493      564.966       604.04
  494      565.392       603.76
  495      565.819       603.38
  496      566.245       603.18
  497      566.671       603.28
  498      567.097       603.26
  499      567.523        603.3
  500      567.949        603.5
  501      568.374       603.96
  502        568.8       604.82
  503      569.226       605.92
  504      569.651       606.96
  505      570.077       607.88
  506      570.502        608.1
  507      570.927       608.02
  508      571.352       607.72
  509      571.777       607.16
  510      572.202       606.56
  511      572.627       606.54
  512      573.052       606.56
  513      573.476       606.98
  514      573.901       607.32
  515      574.325        607.7
  516       574.75        608.2
  517      575.174       608.56
  518      575.598       608.46
  519      576.022       608.26
  520      576.446        607.8
  521       576.87       607.08
  522      577.294        606.6
  523      577.718        606.7
  524      578.142       606.86
  525      578.565       607.28
  526      578.989       608.08
  527      579.412       608.38
  528      579.835        608.8
  529      580.259       610.42
  530      580.682       612.42
  531      581.105       614.68
  532      581.528       617.98
  533      581.951        621.2
  534      582.373       623.96
  535      582.796       627.18
  536      583.219       630.18
  537      583.641       632.46
  538      584.063       634.04
  539      584.486       634.78
  540      584.908       635.38
  541       585.33       640.44
  542      585.752       661.54
  543      586.174       710.16
  544      586.596       788.16
  545      587.018       883.88
  546      587.439       967.56
  547      587.861      1010.88
  548      588.282       1004.8
  549      588.704       952.32
  550      589.125       869.36
  551      589.546       786.66
  552      589.967       724.68
  553      590.388        682.4
  554      590.809       655.08
  555       591.23       638.22
  556      591.651       627.98
  557      592.071       621.24
  558      592.492       616.74
  559      592.912       613.96
  560      593.333        612.5
  561      593.753       611.74
  562      594.173       610.88
  563      594.593       609.96
  564      595.013       609.68
  565      595.433       610.08
  566      595.853       610.52
  567      596.273       611.04
  568      596.693       611.82
  569      597.112       612.68
  570      597.532       612.74
  571      597.951       612.28
  572       598.37       611.66
  573      598.789       610.84
  574      599.208        609.9
  575      599.627       609.06
  576      600.046       608.32
  577      600.465       608.02
  578      600.884       608.04
  579      601.303          608
  580      601.721        608.2
  581      602.139       608.44
  582      602.558       608.34
  583      602.976        608.3
  584      603.394       608.48
  585      603.812       608.16
  586       604.23        607.4
  587      604.648       607.12
  588      605.066       606.78
  589      605.484       606.26
  590      605.901        606.5
  591      606.319       607.48
  592      606.736       608.06
  593      607.154       608.16
  594      607.571        608.6
  595      607.988       608.78
  596      608.405       608.18
  597      608.822        607.5
  598      609.239       607.64
  599      609.656        607.8
  600      610.072       607.36
  601      610.489       606.98
  602      610.905        607.2
  603      611.322       607.58
  604      611.738       607.46
  605      612.154        607.5
  606       612.57       607.86
  607      612.986       608.02
  608      613.402       607.32
  609      613.818        606.6
  610      614.234       606.36
  611       614.65       606.38
  612      615.065       606.42
  613      615.481       606.66
  614      615.896       607.36
  615      616.311        607.9
  616      616.727        608.3
  617      617.142       608.26
  618      617.557       608.02
  619      617.972       607.28
  620      618.386       606.36
  621      618.801       605.56
  622      619.216       605.16
  623       619.63       605.22
  624      620.045       605.38
  625      620.459       605.94
  626      620.873       606.84
  627      621.287       607.78
  628      621.702       608.12
  629      622.116       608.26
  630      622.529       608.22
  631      622.943       607.62
  632      623.357       606.76
  633      623.771       606.28
  634      624.184       605.88
  635      624.597       605.42
  636      625.011       605.02
  637      625.424       604.64
  638      625.837       604.58
  639       626.25       604.82
  640      626.663       604.78
  641      627.076        604.7
  642      627.489       604.84
  643      627.901       604.62
  644      628.314        604.7
  645      628.726        605.2
  646      629.139       605.68
  647      629.551       606.02
  648      629.963       606.64
  649      630.375       607.18
  650      630.787       607.62
  651      631.199       607.92
  652      631.611       608.56
  653      632.023        609.5
  654      632.434       610.04
  655      632.846        610.1
  656      633.257       609.86
  657      633.669       609.28
  658       634.08       607.92
  659      634.491       606.88
  660      634.902       606.56
  661      635.313       606.92
  662      635.724       607.52
  663      636.135       608.36
  664      636.545       609.04
  665      636.956        609.9
  666      637.366       610.56
  667      637.777       610.24
  668      638.187       609.96
  669      638.597       610.32
  670      639.007       610.54
  671      639.417       610.18
  672      639.827       610.78
  673      640.237        611.4
  674      640.647       610.84
  675      641.056       609.98
  676      641.466       609.68
  677      641.875       609.24
  678      642.285       609.12
  679      642.694       609.54
  680      643.103       609.78
  681      643.512       609.76
  682      643.921       609.66
  683       644.33       609.02
  684      644.739        608.4
  685      645.148        608.1
  686      645.556       607.96
  687      645.965       608.02
  688      646.373       608.96
  689      646.781       609.94
  690      647.189       610.02
  691      647.598       609.88
  692      648.006       609.76
  693      648.414       609.08
  694      648.821       607.54
  695      649.229        606.4
  696      649.637       605.64
  697      650.044       605.02
  698      650.452        604.7
  699      650.859       605.04
  700      651.266       605.52
  701      651.673       605.78
  702       652.08        606.1
  703      652.487       606.66
  704      652.894       607.24
  705      653.301       607.76
  706      653.708       608.18
  707      654.114       608.64
  708      654.521       608.86
  709      654.927       609.36
  710      655.333       610.32
  711       655.74        611.4
  712      656.146       612.06
  713      656.552       611.96
  714      656.958       611.18
  715      657.363       610.44
  716      657.769        609.7
  717      658.175       608.66
  718       658.58       607.98
  719      658.986       608.04
  720      659.391       608.14
  721      659.796       608.84
  722      660.201       609.88
  723      660.606       611.04
  724      661.011       612.22
  725      661.416       612.82
  726      661.821       612.68
  727      662.225        612.3
  728       662.63        611.7
  729      663.034       611.14
  730      663.439       611.04
  731      663.843       611.66
  732      664.247       612.68
  733      664.651       613.74
  734      665.055       614.88
  735      665.459        617.2
  736      665.863       622.74
  737      666.267       634.06
  738       666.67       652.18
  739      667.074       675.02
  740      667.477       697.66
  741       667.88       714.28
  742      668.283        720.5
  743      668.687       714.02
  744       669.09       697.36
  745      669.492       676.32
  746      669.895       655.86
  747      670.298       638.66
  748      670.701       626.54
  749      671.103       619.12
  750      671.505        614.3
  751      671.908       610.68
  752       672.31       608.32
  753      672.712          607
  754      673.114       605.92
  755      673.516       605.68
  756      673.918       606.46
  757       674.32        607.6
  758      674.721       608.36
  759      675.123       608.86
  760      675.524       608.98
  761      675.926        608.7
  762      676.327       608.14
  763      676.728       607.88
  764      677.129        607.4
  765       677.53       606.88
  766      677.931        606.3
  767      678.332       605.74
  768      678.732       605.18
  769      679.133       605.12
  770      679.533       605.68
  771      679.934       606.22
  772      680.334       606.34
  773      680.734       606.72
  774      681.134       607.48
  775      681.534       607.72
  776      681.934          608
  777      682.334       608.98
  778      682.733       609.66
  779      683.133        610.1
  780      683.532       610.72
  781      683.932       611.28
  782      684.331       611.14
  783       684.73       610.66
  784      685.129        609.9
  785      685.528       609.08
  786      685.927       608.36
  787      686.326        607.7
  788      686.725       607.46
  789      687.123       607.84
  790      687.522       607.94
  791       687.92        607.4
  792      688.319        607.1
  793      688.717       606.94
  794      689.115        606.4
  795      689.513       606.02
  796      689.911        606.2
  797      690.309       606.42
  798      690.706       606.56
  799      691.104        606.6
  800      691.501       606.76
  801      691.899        607.5
  802      692.296       607.98
  803      692.693       607.66
  804       693.09       607.18
  805      693.488       607.16
  806      693.884       606.72
  807      694.281       606.32
  808      694.678       606.66
  809      695.075       607.22
  810      695.471       606.88
  811      695.868       606.36
  812      696.264       605.98
  813       696.66       605.24
  814      697.056       604.78
  815      697.452        604.9
  816      697.848       605.32
  817      698.244       606.16
  818       698.64       607.66
  819      699.035        608.8
  820      699.431       609.92
  821      699.826       610.92
  822      700.222       611.52
  823      700.617       611.84
  824      701.012        612.1
  825      701.407       612.38
  826      701.802        612.4
  827      702.197       612.48
  828      702.592        613.3
  829      702.986        614.3
  830      703.381        614.9
  831      703.775       616.64
  832       704.17        621.6
  833      704.564       632.14
  834      704.958       653.18
  835      705.352       686.06
  836      705.746        727.1
  837       706.14        768.9
  838      706.533       803.24
  839      706.927        820.7
  840      707.321       814.64
  841      707.714       788.54
  842      708.107       751.58
  843      708.501       711.28
  844      708.894       675.08
  845      709.287       649.38
  846       709.68        633.2
  847      710.073       623.24
  848      710.465       617.66
  849      710.858        614.2
  850      711.251        611.8
  851      711.643       610.92
  852      712.035       610.76
  853      712.428       610.44
  854       712.82          610
  855      713.212       609.82
  856      713.604       609.48
  857      713.995       609.08
  858      714.387        608.5
  859      714.779       607.76
  860       715.17          607
  861      715.562       606.34
  862      715.953       605.62
  863      716.344        605.4
  864      716.735       606.12
  865      717.127        607.3
  866      717.517       608.22
  867      717.908       608.98
  868      718.299       609.32
  869       718.69       608.64
  870       719.08       607.14
  871      719.471       605.72
  872      719.861       604.98
  873      720.251       604.82
  874      720.641       604.88
  875      721.031       605.12
  876      721.421       605.58
  877      721.811       605.68
  878      722.201        605.4
  879       722.59        605.5
  880       722.98       605.78
  881      723.369       605.38
  882      723.759       604.64
  883      724.148       604.04
  884      724.537       603.46
  885      724.926       603.36
  886      725.315       604.04
  887      725.704        605.2
  888      726.092        606.7
  889      726.481       609.24
  890       726.87       612.52
  891      727.258        616.2
  892      727.646       619.78
  893      728.034        622.7
  894      728.423       624.04
  895      728.811       623.98
  896      729.198       622.34
  897      729.586        619.3
  898      729.974       616.16
  899      730.362        613.5
  900      730.749       610.82
  901      731.136       608.72
  902      731.524       607.48
  903      731.911          606
  904      732.298       604.42
  905      732.685       603.58
  906      733.072       603.34
  907      733.459       603.74
  908      733.845        604.8
  909      734.232       605.66
  910      734.618       606.26
  911      735.005        606.9
  912      735.391       607.04
  913      735.777       607.02
  914      736.163       607.74
  915      736.549       608.18
  916      736.935          608
  917      737.321       608.52
  918      737.706       609.58
  919      738.092       609.96
  920      738.477       609.94
  921      738.863       609.74
  922      739.248          609
  923      739.633       608.14
  924      740.018       607.48
  925      740.403       607.66
  926      740.788       608.56
  927      741.173       609.12
  928      741.557       608.82
  929      741.942       608.52
  930      742.326       608.24
  931      742.711       608.04
  932      743.095       607.92
  933      743.479       607.88
  934      743.863       607.52
  935      744.247       606.94
  936      744.631       606.36
  937      745.015       606.34
  938      745.398       606.92
  939      745.782       607.54
  940      746.165       607.88
  941      746.548       607.84
  942      746.932       607.02
  943      747.315       606.14
  944      747.698        605.8
  945      748.081        605.9
  946      748.463       605.88
  947      748.846       606.24
  948      749.229        606.4
  949      749.611        606.3
  950      749.993        606.3
  951      750.376       606.46
  952      750.758       606.62
  953       751.14        607.1
  954      751.522       607.66
  955      751.904       607.68
  956      752.285       607.32
  957      752.667       607.24
  958      753.049       607.02
  959       753.43       606.46
  960      753.811       606.28
  961      754.193       606.72
  962      754.574       606.94
  963      754.955       606.68
  964      755.336          606
  965      755.717       605.12
  966      756.097       604.16
  967      756.478        603.3
  968      756.858       603.22
  969      757.239       603.86
  970      757.619       604.44
  971      757.999       604.76
  972      758.379       605.14
  973      758.759       605.22
  974      759.139       605.06
  975      759.519       605.32
  976      759.899        605.9
  977      760.278        606.4
  978      760.658       606.54
  979      761.037       606.74
  980      761.417       606.66
  981      761.796        606.4
  982      762.175       605.98
  983      762.554       606.14
  984      762.933       606.82
  985      763.311       607.52
  986       763.69       608.18
  987      764.068       608.42
  988      764.447       608.28
  989      764.825       607.64
  990      765.203       606.78
  991      765.582       606.68
  992       765.96       607.32
  993      766.338       607.34
  994      766.715       606.86
  995      767.093       606.86
  996      767.471       607.16
  997      767.848       607.42
  998      768.226       608.22
  999      768.603       609.54
 1000       768.98       610.22
 1001      769.357       609.48
 1002      769.734       608.28
 1003      770.111       606.78
 1004      770.488       605.76
 1005      770.864       605.56
 1006      771.241        605.6
 1007      771.617        605.8
 1008      771.994       606.58
 1009       772.37       607.06
 1010      772.746       607.18
 1011      773.122       607.52
 1012      773.498       608.12
 1013      773.874       608.54
 1014       774.25       608.48
 1015      774.625          608
 1016      775.001       607.58
 1017      775.376        607.3
 1018      775.751       607.22
 1019      776.127        607.7
 1020      776.502        608.3
 1021      776.877       608.26
 1022      777.252       608.02
 1023      777.626       608.04
 1024      778.001       607.96
 1025      778.375       607.92
 1026       778.75       608.34
 1027      779.124       608.54
 1028      779.499       608.32
 1029      779.873       608.08
 1030      780.247       607.72
 1031      780.621       607.38
 1032      780.994       607.34
 1033      781.368       607.76
 1034      781.742       608.06
 1035      782.115        608.2
 1036      782.489       608.46
 1037      782.862        608.6
 1038      783.235       608.42
 1039      783.608       608.38
 1040      783.981       608.48
 1041      784.354       608.38
 1042      784.727       608.06
 1043        785.1        607.6
 1044      785.472       607.28
 1045      785.845       607.18
 1046      786.217       607.22
 1047      786.589       607.22
 1048      786.961       606.78
 1049      787.333        606.1
 1050      787.705        605.7
 1051      788.077       605.54
 1052      788.449       605.68
 1053       788.82       606.32
 1054      789.192       606.92
 1055      789.563       607.12
 1056      789.934       606.96
 1057      790.306        606.4
 1058      790.677       606.14
 1059      791.048       606.12
 1060      791.419       606.18
 1061      791.789       606.24
 1062       792.16       606.44
 1063       792.53       606.12
 1064      792.901       605.34
 1065      793.271       604.74
 1066      793.641       604.72
 1067      794.012       604.98
 1068      794.382       605.26
 1069      794.751        605.9
 1070      795.121        606.3
 1071      795.491       605.86
 1072      795.861       605.52
 1073       796.23       605.38
 1074      796.599       605.02
 1075      796.969       604.88
 1076      797.338       605.02
 1077      797.707       604.86
 1078      798.076        604.7
 1079      798.445       604.74
 1080      798.813        604.4
 1081      799.182       604.12
 1082       799.55       604.24
 1083      799.919       604.26
 1084      800.287       604.26
 1085      800.655       604.68
 1086      801.023       604.68
 1087      801.391       604.02
 1088      801.759       603.38
 1089      802.127       603.24
 1090      802.495       603.18
 1091      802.862       603.54
 1092       803.23       604.48
 1093      803.597       605.58
 1094      803.964        606.1
 1095      804.331       606.18
 1096      804.698       606.24
 1097      805.065       606.48
 1098      805.432       606.62
 1099      805.799       606.58
 1100      806.165       606.74
 1101      806.532       607.12
 1102      806.898        607.4
 1103      807.264        607.4
 1104      807.631        607.6
 1105      807.997        608.3
 1106      808.363       608.86
 1107      808.728       608.82
 1108      809.094       608.54
 1109       809.46       608.18
 1110      809.825       607.48
 1111      810.191        606.5
 1112      810.556        605.8
 1113      810.921       605.84
 1114      811.286        605.9
 1115      811.651       605.62
 1116      812.016       605.22
 1117      812.381       604.82
 1118      812.745       604.14
 1119       813.11       603.48
 1120      813.474       602.82
 1121      813.839       602.96
 1122      814.203       603.32
 1123      814.567       603.54
 1124      814.931        604.1
 1125      815.295       604.66
 1126      815.659       604.86
 1127      816.022       605.26
 1128      816.386       605.86
 1129      816.749       606.18
 1130      817.113       606.68
 1131      817.476       607.26
 1132      817.839       607.42
 1133      818.202       607.28
 1134      818.565        606.9
 1135      818.928       606.54
 1136      819.291       606.42
 1137      819.653       606.46
 1138      820.016       606.26
 1139      820.378       605.98
 1140       820.74       605.56
 1141      821.102       604.52
 1142      821.464       603.88
 1143      821.826       604.54
 1144      822.188       605.96
 1145       822.55       606.94
 1146      822.912       607.12
 1147      823.273       606.84
 1148      823.634       606.22
 1149      823.996       605.22
 1150      824.357       604.86
 1151      824.718       605.84
 1152      825.079       607.06
 1153       825.44        608.3
 1154      825.801       609.14
 1155      826.161       609.06
 1156      826.522       608.44
 1157      826.882       607.82
 1158      827.242       606.68
 1159      827.603       605.66
 1160      827.963       605.12
 1161      828.323       604.58
 1162      828.682       604.14
 1163      829.042        603.9
 1164      829.402       603.72
 1165      829.761       604.32
 1166      830.121       605.28
 1167       830.48       605.82
 1168      830.839       606.26
 1169      831.198          607
 1170      831.557        607.2
 1171      831.916       607.14
 1172      832.275       607.36
 1173      832.634        607.6
 1174      832.992        607.4
 1175      833.351       607.26
 1176      833.709        607.5
 1177      834.067       607.46
 1178      834.425       607.86
 1179      834.783       608.54
 1180      835.141       608.58
 1181      835.499       608.24
 1182      835.857       608.48
 1183      836.214       608.34
 1184      836.572       608.32
 1185      836.929       609.26
 1186      837.286       610.34
 1187      837.644       610.82
 1188      838.001       610.98
 1189      838.357        610.7
 1190      838.714       609.96
 1191      839.071        609.1
 1192      839.428       608.32
 1193      839.784        607.5
 1194       840.14       606.94
 1195      840.497       606.62
 1196      840.853       606.04
 1197      841.209       605.46
 1198      841.565        605.5
 1199       841.92       605.82
 1200      842.276       606.12
 1201      842.632        607.1
 1202      842.987       608.02
 1203      843.343        608.3
 1204      843.698       608.16
 1205      844.053       607.88
 1206      844.408       607.58
 1207      844.763       607.42
 1208      845.118       607.46
 1209      845.472        607.7
 1210      845.827       608.14
 1211      846.181       608.02
 1212      846.536       607.44
 1213       846.89       607.18
 1214      847.244       607.14
 1215      847.598        607.3
 1216      847.952       607.56
 1217      848.306       607.94
 1218       848.66          608
 1219      849.013       607.66
 1220      849.367       606.74
 1221       849.72        606.2
 1222      850.073       605.98
 1223      850.427       605.78
 1224       850.78       605.98
 1225      851.133       606.78
 1226      851.485       607.82
 1227      851.838       608.68
 1228      852.191       609.24
 1229      852.543        609.5
 1230      852.896       609.04
 1231      853.248       607.82
 1232        853.6       607.04
 1233      853.952        607.2
 1234      854.304       607.64
 1235      854.656       608.28
 1236      855.007        608.9
 1237      855.359        608.9
 1238       855.71       608.12
 1239      856.062       607.26
 1240      856.413       606.62
 1241      856.764       606.28
 1242      857.115        606.3
 1243      857.466       606.88
 1244      857.817       607.44
 1245      858.168       608.02
 1246      858.518        608.6
 1247      858.869       609.02
 1248      859.219       608.92
 1249      859.569        608.8
 1250       859.92       609.06
 1251       860.27       608.98
 1252      860.619        609.1
 1253      860.969       609.22
 1254      861.319        608.9
 1255      861.669       608.14
 1256      862.018       607.64
 1257      862.367        607.1
 1258      862.717          607
 1259      863.066       607.36
 1260      863.415       607.66
 1261      863.764        608.1
 1262      864.112       608.48
 1263      864.461       608.14
 1264       864.81       607.36
 1265      865.158       606.64
 1266      865.507       605.92
 1267      865.855       605.26
 1268      866.203       604.88
 1269      866.551       604.72
 1270      866.899       605.18
 1271      867.247       605.78
 1272      867.594       605.96
 1273      867.942       606.28
 1274      868.289       606.74
 1275      868.637       606.78
 1276      868.984       607.06
 1277      869.331        607.6
 1278      869.678       607.64
 1279      870.025       607.48
 1280      870.372       607.28
 1281      870.718       606.66
 1282      871.065       606.16
 1283      871.411       606.84
 1284      871.758       607.94
 1285      872.104       608.64
 1286       872.45       609.04
 1287      872.796       608.88
 1288      873.142       607.34
 1289      873.488       605.54
 1290      873.833       604.46
 1291      874.179       603.84
 1292      874.524        603.7
 1293      874.869       605.02
 1294      875.215       607.26
 1295       875.56       608.84
 1296      875.905       610.02
 1297       876.25       610.62
 1298      876.594       609.88
 1299      876.939        608.2
 1300      877.283       606.74
 1301      877.628       605.46
 1302      877.972       604.88
 1303      878.316        604.9
 1304       878.66       604.94
 1305      879.004       604.94
 1306      879.348       605.02
 1307      879.692        605.2
 1308      880.035       605.32
 1309      880.379       605.46
 1310      880.722       605.58
 1311      881.066       605.26
 1312      881.409       604.58
 1313      881.752       604.08
 1314      882.095       603.38
 1315      882.438       602.88
 1316       882.78        603.4
 1317      883.123       604.44
 1318      883.465       605.54
 1319      883.808       606.78
 1320       884.15       607.84
 1321      884.492       608.44
 1322      884.834       607.94
 1323      885.176       607.12
 1324      885.518       606.68
 1325      885.859       606.16
 1326      886.201       605.76
 1327      886.542       606.28
 1328      886.884        606.7
 1329      887.225       606.66
 1330      887.566       606.34
 1331      887.907       605.44
 1332      888.248       604.74
 1333      888.589        604.7
 1334      888.929       604.78
 1335       889.27       605.02
 1336       889.61       605.44
 1337      889.951       605.18
 1338      890.291        604.4
 1339      890.631       603.58
 1340      890.971        602.9
 1341      891.311        602.2
 1342       891.65          602
 1343       891.99        602.3
 1344      892.329        602.8
 1345      892.669       603.38
 1346      893.008       604.42
 1347      893.347       605.34
 1348      893.686       605.94
 1349      894.025       606.54
 1350      894.364       607.32
 1351      894.703       607.72
 1352      895.041          608
 1353       895.38        607.9
 1354      895.718       607.54
 1355      896.056        607.5
 1356      896.395        607.8
 1357      896.733       608.18
 1358      897.071       608.14
 1359      897.408       608.16
 1360      897.746        607.5
 1361      898.084       606.36
 1362      898.421       605.44
 1363      898.758       605.24
 1364      899.095        605.2
 1365      899.433       605.48
 1366       899.77       606.24
 1367      900.106       607.02
 1368      900.443       607.56
 1369       900.78       607.74
 1370      901.116       607.88
 1371      901.453       607.84
 1372      901.789       607.76
 1373      902.125        607.9
 1374      902.461       608.04
 1375      902.797        607.8
 1376      903.133        607.6
 1377      903.469        607.5
 1378      903.804        607.7
 1379       904.14       608.02
 1380      904.475       608.22
 1381       904.81       608.32
 1382      905.146       608.48
 1383      905.481       608.36
 1384      905.815        608.2
 1385       906.15        608.7
 1386      906.485       608.86
 1387      906.819       608.36
 1388      907.154        607.8
 1389      907.488       607.72
 1390      907.822       607.68
 1391      908.156       607.64
 1392       908.49       607.64
 1393      908.824        607.4
 1394      909.158       606.74
 1395      909.492       605.76
 1396      909.825        605.6
 1397      910.159        606.1
 1398      910.492        606.9
 1399      910.825        607.5
 1400      911.158       607.88
 1401      911.491       607.94
 1402      911.824       607.64
 1403      912.157       606.96
 1404      912.489        606.3
 1405      912.822       606.16
 1406      913.154       605.68
 1407      913.486       604.88
 1408      913.818       604.12
 1409       914.15       603.74
 1410      914.482       603.56
 1411      914.814       603.44
 1412      915.146        603.6
 1413      915.477       604.22
 1414      915.809       605.14
 1415       916.14        605.6
 1416      916.471       605.76
 1417      916.802       605.82
 1418      917.133        605.7
 1419      917.464       605.18
 1420      917.795       604.42
 1421      918.125       604.34
 1422      918.456       604.82
 1423      918.786       605.26
 1424      919.116       605.28
 1425      919.446       605.38
 1426      919.776       605.28
 1427      920.106       604.68
 1428      920.436       604.28
 1429      920.766        604.3
 1430      921.095       604.34
 1431      921.425        604.3
 1432      921.754       604.08
 1433      922.083       603.34
 1434      922.412       602.72
 1435      922.741       602.58
 1436       923.07       602.84
 1437      923.399       603.64
 1438      923.727        604.7
 1439      924.056       605.44
 1440      924.384       605.92
 1441      924.713       606.24
 1442      925.041       606.14
 1443      925.369        606.1
 1444      925.697       606.76
 1445      926.024       607.38
 1446      926.352       607.56
 1447       926.68       607.72
 1448      927.007        607.9
 1449      927.334       607.52
 1450      927.662       607.08
 1451      927.989       607.28
 1452      928.316       607.66
 1453      928.643       607.78
 1454      928.969       607.24
 1455      929.296       606.18
 1456      929.622       605.14
 1457      929.949        604.4
 1458      930.275        604.1
 1459      930.601       604.62
 1460      930.927       605.72
 1461      931.253       606.72
 1462      931.579       607.68
 1463      931.905       608.12
 1464       932.23       607.98
 1465      932.556       607.12
 1466      932.881       605.82
 1467      933.206       604.26
 1468      933.531       602.94
 1469      933.856       602.32
 1470      934.181          603
 1471      934.506       603.84
 1472       934.83       604.76
 1473      935.155       605.56
 1474      935.479       605.92
 1475      935.803       606.02
 1476      936.128       606.22
 1477      936.452        606.1
 1478      936.775       605.68
 1479      937.099       605.34
 1480      937.423       604.78
 1481      937.746       604.18
 1482       938.07       603.84
 1483      938.393       604.28
 1484      938.716       605.24
 1485      939.039       606.28
 1486      939.362       607.22
 1487      939.685       607.76
 1488      940.008        607.9
 1489      940.331        607.1
 1490      940.653       606.24
 1491      940.975        605.4
 1492      941.298        604.6
 1493       941.62        604.2
 1494      941.942       604.36
 1495      942.264       604.48
 1496      942.585       604.86
 1497      942.907       605.76
 1498      943.229       606.24
 1499       943.55       606.18
 1500      943.871       605.92
 1501      944.192       605.92
 1502      944.513        605.5
 1503      944.834       605.24
 1504      945.155        606.1
 1505      945.476       607.14
 1506      945.796       607.74
 1507      946.117       608.26
 1508      946.437       608.92
 1509      946.757       608.98
 1510      947.078       608.48
 1511      947.398       607.66
 1512      947.717       607.04
 1513      948.037       606.64
 1514      948.357       606.38
 1515      948.676       606.42
 1516      948.996       606.62
 1517      949.315        606.9
 1518      949.634       606.98
 1519      949.953       607.14
 1520      950.272       607.68
 1521      950.591       607.94
 1522      950.909       607.48
 1523      951.228       607.22
 1524      951.546       606.82
 1525      951.865       606.02
 1526      952.183       605.38
 1527      952.501        604.8
 1528      952.819       603.72
 1529      953.137       602.56
 1530      953.454       601.96
 1531      953.772       601.94
 1532      954.089       602.08
 1533      954.407       602.04
 1534      954.724       602.48
 1535      955.041       603.02
 1536      955.358       603.32
 1537      955.675       604.18
 1538      955.992       605.52
 1539      956.308       605.98
 1540      956.625       605.76
 1541      956.941        605.7
 1542      957.257       605.66
 1543      957.574       605.48
 1544       957.89       605.54
 1545      958.206       605.84
 1546      958.521       605.84
 1547      958.837       605.44
 1548      959.152       605.44
 1549      959.468       606.28
 1550      959.783       607.54
 1551      960.098       608.62
 1552      960.413       609.48
 1553      960.728       609.44
 1554      961.043       608.34
 1555      961.358       606.62
 1556      961.672       604.92
 1557      961.987       604.16
 1558      962.301        604.7
 1559      962.615       605.84
 1560       962.93       606.82
 1561      963.244       607.78
 1562      963.557       608.24
 1563      963.871       607.86
 1564      964.185       607.26
 1565      964.498       607.02
 1566      964.812        606.6
 1567      965.125       606.04
 1568      965.438       605.36
 1569      965.751       604.84
 1570      966.064       604.48
 1571      966.377       604.68
 1572      966.689       605.36
 1573      967.002       606.14
 1574      967.314       606.44
 1575      967.626       606.56
 1576      967.939       606.54
 1577      968.251       606.14
 1578      968.563        606.1
 1579      968.874       606.24
 1580      969.186       606.54
 1581      969.498       606.94
 1582      969.809        607.5
 1583       970.12       607.86
 1584      970.431       608.26
 1585      970.743       608.72
 1586      971.053       608.66
 1587      971.364       607.92
 1588      971.675       606.72
 1589      971.986       605.66
 1590      972.296        604.8
 1591      972.606       604.42
 1592      972.917       604.68
 1593      973.227        605.3
 1594      973.537       605.64
 1595      973.847       605.32
 1596      974.156       604.96
 1597      974.466       604.66
 1598      974.775       604.52
 1599      975.085       604.86
 1600      975.394       605.44
 1601      975.703       605.94
 1602      976.012       606.32
 1603      976.321       606.68
 1604       976.63       607.18
 1605      976.938       607.82
 1606      977.247       607.84
 1607      977.555        607.6
 1608      977.863       607.22
 1609      978.172        606.5
 1610       978.48        605.7
 1611      978.787       605.48
 1612      979.095       605.42
 1613      979.403       605.28
 1614       979.71       605.14
 1615      980.018       604.84
 1616      980.325       604.56
 1617      980.632       604.08
 1618      980.939       603.84
 1619      981.246       603.64
 1620      981.553       604.02
 1621       981.86        604.1
 1622      982.166       604.16
 1623      982.473       604.48
 1624      982.779        604.9
 1625      983.085        604.9
 1626      983.391       604.98
 1627      983.697       605.32
 1628      984.003       605.54
 1629      984.309       605.72
 1630      984.614        606.2
 1631       984.92       607.32
 1632      985.225        608.2
 1633       985.53       608.74
 1634      985.835       609.18
 1635       986.14        609.2
 1636      986.445       608.68
 1637       986.75       608.22
 1638      987.054        607.8
 1639      987.359       607.18
 1640      987.663       606.26
 1641      987.967       605.46
 1642      988.271       605.16
 1643      988.575       604.94
 1644      988.879          605
 1645      989.183       605.28
 1646      989.487       605.42
 1647       989.79       605.52
 1648      990.093        605.6
 1649      990.397       605.62
 1650        990.7        605.8
 1651      991.003       606.18
 1652      991.306       606.54
 1653      991.608       606.94
 1654      991.911       607.36
 1655      992.213       607.94
 1656      992.516       608.42
 1657      992.818       608.48
 1658       993.12       608.32
 1659      993.422       608.54
 1660      993.724       608.78
 1661      994.026       608.94
 1662      994.327       609.42
 1663      994.629       609.84
 1664       994.93       609.64
 1665      995.232       609.38
 1666      995.533       609.28
 1667      995.834       609.08
 1668      996.135       608.72
 1669      996.435       608.58
 1670      996.736        608.3
 1671      997.036        607.4
 1672      997.337       606.12
 1673      997.637       605.42
 1674      997.937       605.18
 1675      998.237       605.28
 1676      998.537       606.16
 1677      998.837       607.66
 1678      999.137       608.98
 1679      999.436       609.48
 1680      999.735          609
 1681      1000.03       607.96
 1682      1000.33       606.94
 1683      1000.63        605.7
 1684      1000.93       604.38
 1685      1001.23        603.9
 1686      1001.53       604.02
 1687      1001.83       604.02
 1688      1002.13       604.64
 1689      1002.42       605.58
 1690      1002.72       605.66
 1691      1003.02       605.34
 1692      1003.32        605.2
 1693      1003.62       604.64
 1694      1003.91       604.56
 1695      1004.21       605.08
 1696      1004.51       605.16
 1697      1004.81       604.84
 1698       1005.1       604.28
 1699       1005.4        603.4
 1700       1005.7        603.2
 1701      1005.99       604.04
 1702      1006.29        605.2
 1703      1006.59       606.42
 1704      1006.88       607.52
 1705      1007.18        608.3
 1706      1007.48       608.78
 1707      1007.77       609.04
 1708      1008.07       609.68
 1709      1008.36       610.22
 1710      1008.66       610.32
 1711      1008.95       610.24
 1712      1009.25          610
 1713      1009.55       609.88
 1714      1009.84       609.72
 1715      1010.14       609.44
 1716      1010.43       609.06
 1717      1010.73       608.64
 1718      1011.02       607.96
 1719      1011.31        607.6
 1720      1011.61       607.28
 1721       1011.9          607
 1722       1012.2       606.98
 1723      1012.49        607.1
 1724      1012.79       607.36
 1725      1013.08       608.04
 1726      1013.37       608.58
 1727      1013.67       608.54
 1728      1013.96       608.34
 1729      1014.25       607.94
 1730      1014.55       607.14
 1731      1014.84        606.6
 1732      1015.13       606.48
 1733      1015.42       606.54
 1734      1015.72       606.66
 1735      1016.01        606.9
 1736       1016.3       607.38
 1737      1016.59       607.98
 1738      1016.89       607.94
 1739      1017.18       607.44
 1740      1017.47       606.66
 1741      1017.76       605.38
 1742      1018.05       603.66
 1743      1018.35       601.94
 1744      1018.64       601.18
 1745      1018.93       601.28
 1746      1019.22       601.66
 1747      1019.51        602.7
 1748       1019.8       604.46
 1749      1020.09       606.06
 1750      1020.38       607.12
 1751      1020.67       607.84
 1752      1020.96       608.42
 1753      1021.25       608.54
 1754      1021.54       607.78
 1755      1021.83       606.52
 1756      1022.12       605.58
 1757      1022.41        604.9
 1758       1022.7       604.44
 1759      1022.99       604.08
 1760      1023.28       604.56
 1761      1023.57        605.4
 1762      1023.86       605.82
 1763      1024.15       606.28
 1764      1024.44       607.42
 1765      1024.73       608.32
 1766      1025.02        608.8
 1767       1025.3       609.38
 1768      1025.59       609.86
 1769      1025.88       610.12
 1770      1026.17       610.06
 1771      1026.46       610.28
 1772      1026.74        610.4
 1773      1027.03          610
 1774      1027.32       609.28
 1775      1027.61       609.12
 1776      1027.89       608.58
 1777      1028.18       607.52
 1778      1028.47       606.82
 1779      1028.76       606.66
 1780      1029.04       606.72
 1781      1029.33       606.76
 1782      1029.62       606.78
 1783       1029.9       606.96
 1784      1030.19       607.24
 1785      1030.47       607.06
 1786      1030.76       606.14
 1787      1031.05       605.66
 1788      1031.33       605.32
 1789      1031.62       604.28
 1790       1031.9        602.9
 1791      1032.19        602.5
 1792      1032.47       602.64
 1793      1032.76       602.92
 1794      1033.04       603.64
 1795      1033.33       604.84
 1796      1033.61       606.22
 1797       1033.9       607.38
 1798      1034.18        608.1
 1799      1034.47        608.5
 1800      1034.75       608.36
 1801      1035.04        607.6
 1802      1035.32       606.84
 1803       1035.6       606.22
 1804      1035.89        605.6
 1805      1036.17          605
 1806      1036.45        604.6
 1807      1036.74        604.6
 1808      1037.02       604.86
 1809       1037.3       605.28
 1810      1037.59       606.46
 1811      1037.87       607.88
 1812      1038.15        608.4
 1813      1038.44       608.44
 1814      1038.72        608.5
 1815         1039       608.14
 1816      1039.28       607.66
 1817      1039.56       607.14
 1818      1039.85       606.46
 1819      1040.13       605.84
 1820      1040.41       605.42
 1821      1040.69       604.94
 1822      1040.97       604.92
 1823      1041.25       605.16
 1824      1041.54       604.98
 1825      1041.82       604.72
 1826       1042.1       604.88
 1827      1042.38       604.92
 1828      1042.66        605.2
 1829      1042.94       605.88
 1830      1043.22       606.54
 1831       1043.5       607.04
 1832      1043.78       607.48
 1833      1044.06       607.82
 1834      1044.34       607.74
 1835      1044.62       607.46
 1836       1044.9       606.84
 1837      1045.18        606.2
 1838      1045.46       606.12
 1839      1045.74       606.34
 1840      1046.02       606.36
 1841       1046.3       606.92
 1842      1046.58       607.54
 1843      1046.85       607.02
 1844      1047.13       606.38
 1845      1047.41       606.16
 1846      1047.69       605.68
 1847      1047.97       605.34
 1848      1048.25          606
 1849      1048.52       607.24
 1850       1048.8       608.12
 1851      1049.08        608.9
 1852      1049.36       609.28
 1853      1049.63       609.04
 1854      1049.91       608.74
 1855      1050.19       608.62
 1856      1050.47       608.18
 1857      1050.74       608.06
 1858      1051.02       608.16
 1859       1051.3        607.7
 1860      1051.57       606.86
 1861      1051.85        605.9
 1862      1052.13       605.04
 1863       1052.4       604.48
 1864      1052.68        604.2
 1865      1052.95       604.74
 1866      1053.23       605.88
 1867      1053.51       606.96
 1868      1053.78       607.74
 1869      1054.06       608.54
 1870      1054.33        608.9
 1871      1054.61       608.98
 1872      1054.88       608.56
 1873      1055.16       607.96
 1874      1055.43       607.22
 1875      1055.71        606.3
 1876      1055.98       605.68
 1877      1056.25       605.78
 1878      1056.53       605.78
 1879       1056.8       605.78
 1880      1057.08       606.44
 1881      1057.35       607.08
 1882      1057.62       607.12
 1883       1057.9       607.06
 1884      1058.17       606.84
 1885      1058.45        606.1
 1886      1058.72       605.42
 1887      1058.99       604.96
 1888      1059.26       604.84
 1889      1059.54       605.06
 1890      1059.81       605.62
 1891      1060.08       605.96
 1892      1060.35        606.5
 1893      1060.63       607.44
 1894       1060.9       608.18
 1895      1061.17        608.2
 1896      1061.44          608
 1897      1061.71       607.48
 1898      1061.99       606.54
 1899      1062.26       605.82
 1900      1062.53       605.72
 1901       1062.8       605.78
 1902      1063.07       606.22
 1903      1063.34       606.74
 1904      1063.61       607.18
 1905      1063.88        607.9
 1906      1064.15       608.88
 1907      1064.42       609.16
 1908       1064.7        608.8
 1909      1064.97       608.22
 1910      1065.24       607.36
 1911      1065.51       606.62
 1912      1065.78       606.58
 1913      1066.04       607.12
 1914      1066.31       607.94
 1915      1066.58       608.96
 1916      1066.85       609.54
 1917      1067.12       609.66
 1918      1067.39       609.88
 1919      1067.66       609.58
 1920      1067.93       608.52
 1921       1068.2       607.34
 1922      1068.47       606.52
 1923      1068.73       605.94
 1924         1069          606
 1925      1069.27       606.64
 1926      1069.54       607.28
 1927      1069.81       607.58
 1928      1070.07       607.88
 1929      1070.34       608.36
 1930      1070.61       608.56
 1931      1070.88        608.4
 1932      1071.14       608.32
 1933      1071.41       607.62
 1934      1071.68       606.64
 1935      1071.94       605.82
 1936      1072.21       605.52
 1937      1072.48        605.6
 1938      1072.74        605.9
 1939      1073.01       605.88
 1940      1073.28       606.14
 1941      1073.54       606.62
 1942      1073.81       606.82
 1943      1074.07       607.04
 1944      1074.34       607.34
 1945       1074.6       607.42
 1946      1074.87       607.32
 1947      1075.13       607.44
 1948       1075.4       607.44
 1949      1075.66       607.56
 1950      1075.93       608.18
 1951      1076.19          609
 1952      1076.46       609.38
 1953      1076.72       609.66
 1954      1076.99       609.94
 1955      1077.25       609.24
 1956      1077.52       607.86
 1957      1077.78          607
 1958      1078.04       606.42
 1959      1078.31       605.76
 1960      1078.57       605.52
 1961      1078.83       605.98
 1962       1079.1        606.4
 1963      1079.36          607
 1964      1079.62       607.36
 1965      1079.89       607.02
 1966      1080.15       606.66
 1967      1080.41       605.98
 1968      1080.67       604.94
 1969      1080.94       604.18
 1970       1081.2       603.98
 1971      1081.46       603.58
 1972      1081.72       603.76
 1973      1081.98       604.08
 1974      1082.24       604.48
 1975      1082.51       605.46
 1976      1082.77       606.76
 1977      1083.03       607.74
 1978      1083.29       608.66
 1979      1083.55       609.26
 1980      1083.81       609.16
 1981      1084.07       608.46
 1982      1084.33       607.52
 1983      1084.59        606.4
 1984      1084.85       605.26
 1985      1085.11       604.56
 1986      1085.37       604.34
 1987      1085.63       604.42
 1988      1085.89       604.96
 1989      1086.15       606.14
 1990      1086.41       607.24
 1991      1086.67       607.62
 1992      1086.93       607.22
 1993      1087.19       606.48
 1994      1087.45        605.3
 1995      1087.71          604
 1996      1087.97       603.24
 1997      1088.23       603.06
 1998      1088.48       603.82
 1999      1088.74          605
 2000         1089       605.72
 2001      1089.26        606.5
 2002      1089.52        607.3
 2003      1089.77        606.7
 2004      1090.03        605.4
 2005      1090.29       604.74
 2006      1090.55        604.3
 2007       1090.8        604.2
 2008      1091.06       604.94
 2009      1091.32          606
 2010      1091.57       606.76
 2011      1091.83       607.24
 2012      1092.09        607.4
 2013      1092.34       607.74
 2014       1092.6       608.18
 2015      1092.86       607.76
 2016      1093.11       607.14
 2017      1093.37       606.82
 2018      1093.62       606.14
 2019      1093.88        605.4
 2020      1094.13       605.52
 2021      1094.39       606.16
 2022      1094.65       606.82
 2023       1094.9       607.72
 2024      1095.16       608.72
 2025      1095.41       609.76
 2026      1095.66        610.3
 2027      1095.92        610.3
 2028      1096.17       610.02
 2029      1096.43        609.2
 2030      1096.68       608.16
 2031      1096.94       607.58
 2032      1097.19        607.4
 2033      1097.44       607.26
 2034       1097.7        607.5
 2035      1097.95       607.56
 2036       1098.2       607.16
 2037      1098.46       606.26
 2038      1098.71       605.16
 2039      1098.96       604.28
 2040      1099.22        603.9
 2041      1099.47       603.88
 2042      1099.72       604.14
 2043      1099.97       604.48
 2044      1100.23       604.52
 2045      1100.48        605.2
 2046      1100.73      605.225
 2047      1100.98      605.333
