scansci Spectrometer Data File
--- Measurement Setting ---
Type: Sample Spectrum
Date: Mon Oct 16 17:57:22 2023
User: (Reserved by scansci)
Serial: (Reserved by scansci)
Channel: No. 11
Integration Time: 1
Average: 10
Boxcar: 2
Electrical Dark: No-corrected
Time Normalize: (Reserved by scansci)
Dual-beam: (Reserved by scansci)
Reference Ch: (Reserved by scansci)
--- Measurement Data ---
Pixel   Wavelength   Intensity
    0        162.5        638.1
    1      162.985        638.3
    2      163.469       638.02
    3      163.954       637.86
    4      164.439        636.3
    5      164.923       634.74
    6      165.408       633.72
    7      165.892       633.02
    8      166.377       632.84
    9      166.861       633.18
   10      167.345       633.34
   11       167.83        633.5
   12      168.314       633.62
   13      168.798       633.42
   14      169.282       633.26
   15      169.766       632.98
   16       170.25        632.6
   17      170.734       632.34
   18      171.218       632.28
   19      171.702       632.64
   20      172.185        632.8
   21      172.669       632.32
   22      173.153       631.66
   23      173.636       631.28
   24       174.12       631.14
   25      174.603       631.44
   26      175.087       632.22
   27       175.57       633.16
   28      176.053        634.2
   29      176.537       634.94
   30       177.02          635
   31      177.503        634.6
   32      177.986        634.1
   33      178.469        633.3
   34      178.952       632.48
   35      179.435       632.16
   36      179.918        631.9
   37      180.401       631.88
   38      180.884        632.1
   39      181.366       632.92
   40      181.849        633.6
   41      182.332        633.8
   42      182.814       633.78
   43      183.297       633.72
   44      183.779       632.88
   45      184.262        632.1
   46      184.744       632.04
   47      185.226       632.36
   48      185.708       632.66
   49      186.191       632.94
   50      186.673       633.14
   51      187.155       633.62
   52      187.637       633.86
   53      188.119       633.46
   54        188.6       632.94
   55      189.082       632.46
   56      189.564       631.56
   57      190.046       630.46
   58      190.527        629.7
   59      191.009       629.84
   60      191.491       630.04
   61      191.972       630.46
   62      192.454       631.64
   63      192.935       632.62
   64      193.416       632.94
   65      193.897       633.66
   66      194.379       634.18
   67       194.86       634.14
   68      195.341        634.8
   69      195.822       635.74
   70      196.303       635.54
   71      196.784       635.18
   72      197.265       634.84
   73      197.746       634.14
   74      198.226        633.9
   75      198.707       634.68
   76      199.188       635.64
   77      199.668       636.22
   78      200.149       636.64
   79      200.629          636
   80       201.11       634.58
   81       201.59       633.48
   82       202.07       632.84
   83       202.55       631.94
   84      203.031        631.9
   85      203.511       632.72
   86      203.991       633.44
   87      204.471       633.44
   88      204.951       633.34
   89      205.431       632.64
   90       205.91       631.34
   91       206.39       630.24
   92       206.87       629.74
   93      207.349       629.54
   94      207.829        629.8
   95      208.309       630.74
   96      208.788       631.48
   97      209.267       632.02
   98      209.747       632.08
   99      210.226       631.92
  100      210.705       631.44
  101      211.185        630.9
  102      211.664       631.08
  103      212.143       631.96
  104      212.622       633.34
  105      213.101       634.66
  106      213.579       635.38
  107      214.058       634.92
  108      214.537        634.1
  109      215.016       633.32
  110      215.494       633.28
  111      215.973       633.68
  112      216.452        634.4
  113       216.93       635.58
  114      217.408       636.14
  115      217.887       635.42
  116      218.365       634.78
  117      218.843       634.76
  118      219.321       634.38
  119      219.799          634
  120      220.278       634.26
  121      220.755       634.56
  122      221.233       634.42
  123      221.711       634.02
  124      222.189       633.52
  125      222.667       632.68
  126      223.144       631.92
  127      223.622       631.58
  128        224.1        631.5
  129      224.577        631.5
  130      225.055       631.92
  131      225.532       632.44
  132      226.009       632.38
  133      226.486        632.2
  134      226.964        632.6
  135      227.441       633.68
  136      227.918       634.74
  137      228.395       635.56
  138      228.872       636.46
  139      229.349       636.78
  140      229.826       636.18
  141      230.302       635.54
  142      230.779       634.88
  143      231.256       634.36
  144      231.732       634.44
  145      232.209       634.46
  146      232.685       634.06
  147      233.162       634.28
  148      233.638       634.44
  149      234.114       633.86
  150       234.59       633.34
  151      235.066       633.14
  152      235.543       632.78
  153      236.019       632.46
  154      236.495       632.34
  155       236.97       632.22
  156      237.446       631.88
  157      237.922       631.32
  158      238.398       630.98
  159      238.873       631.06
  160      239.349       631.16
  161      239.824       631.48
  162        240.3       632.24
  163      240.775       633.28
  164      241.251       634.18
  165      241.726       634.74
  166      242.201       634.84
  167      242.676       634.68
  168      243.151       634.16
  169      243.626       633.72
  170      244.101       633.64
  171      244.576       633.78
  172      245.051       633.78
  173      245.526       633.64
  174          246        633.2
  175      246.475       633.06
  176       246.95       633.36
  177      247.424       633.86
  178      247.899       634.58
  179      248.373       635.62
  180      248.847       636.42
  181      249.321        636.4
  182      249.796       636.02
  183       250.27        635.4
  184      250.744       634.56
  185      251.218       633.42
  186      251.692       632.72
  187      252.166       632.42
  188      252.639       632.06
  189      253.113        631.7
  190      253.587       632.02
  191       254.06        633.1
  192      254.534       634.24
  193      255.007       634.78
  194      255.481       635.06
  195      255.954       634.92
  196      256.427       633.84
  197      256.901       632.66
  198      257.374       632.22
  199      257.847       631.82
  200       258.32       631.06
  201      258.793       630.44
  202      259.266       629.82
  203      259.739       629.54
  204      260.211       629.36
  205      260.684       629.36
  206      261.157       629.76
  207      261.629       629.96
  208      262.102       629.72
  209      262.574       629.68
  210      263.046       630.16
  211      263.519        630.6
  212      263.991       631.32
  213      264.463       632.16
  214      264.935       632.84
  215      265.407       633.04
  216      265.879       632.86
  217      266.351        632.2
  218      266.823       631.62
  219      267.295       631.38
  220      267.766       631.28
  221      268.238       631.38
  222       268.71       631.58
  223      269.181        631.5
  224      269.653       630.84
  225      270.124       630.02
  226      270.595       629.58
  227      271.066       629.64
  228      271.538       629.84
  229      272.009       630.42
  230       272.48       631.22
  231      272.951       631.68
  232      273.422       631.76
  233      273.892       631.42
  234      274.363       630.66
  235      274.834        630.2
  236      275.305       629.86
  237      275.775       630.32
  238      276.246        631.5
  239      276.716       632.32
  240      277.186       633.18
  241      277.657        634.1
  242      278.127       634.54
  243      278.597       634.48
  244      279.067       634.16
  245      279.537       632.84
  246      280.007       631.44
  247      280.477       630.56
  248      280.947       629.82
  249      281.417       629.92
  250      281.886       630.88
  251      282.356       631.88
  252      282.825        632.2
  253      283.295       632.78
  254      283.764        633.3
  255      284.234       632.92
  256      284.703       632.42
  257      285.172       632.48
  258      285.641       632.64
  259       286.11       632.98
  260      286.579       633.74
  261      287.048        634.1
  262      287.517       633.68
  263      287.986       633.12
  264      288.454        632.5
  265      288.923       631.84
  266      289.392       631.88
  267       289.86       632.22
  268      290.329       632.18
  269      290.797       631.58
  270      291.265       631.06
  271      291.734       630.32
  272      292.202       629.78
  273       292.67       629.58
  274      293.138        629.8
  275      293.606       630.64
  276      294.074       631.62
  277      294.541        632.2
  278      295.009       632.74
  279      295.477       633.38
  280      295.944       633.04
  281      296.412        632.4
  282      296.879       632.36
  283      297.347        632.4
  284      297.814       632.08
  285      298.281       632.16
  286      298.749       632.42
  287      299.216        631.8
  288      299.683       631.14
  289       300.15       631.04
  290      300.616       631.16
  291      301.083       631.56
  292       301.55       632.48
  293      302.017       632.98
  294      302.483       633.04
  295       302.95       633.32
  296      303.416       633.22
  297      303.883       632.86
  298      304.349        632.8
  299      304.815       632.88
  300      305.281       632.74
  301      305.748       632.58
  302      306.214        632.4
  303       306.68        632.2
  304      307.146       632.54
  305      307.611       633.36
  306      308.077       634.26
  307      308.543       635.42
  308      309.008       636.36
  309      309.474       636.32
  310      309.939       635.48
  311      310.405        634.3
  312       310.87       633.14
  313      311.335       632.34
  314        311.8        631.8
  315      312.266        631.8
  316      312.731       632.36
  317      313.196       632.96
  318       313.66       633.28
  319      314.125       633.94
  320       314.59          634
  321      315.055       633.76
  322      315.519       633.96
  323      315.984       633.94
  324      316.448       633.22
  325      316.913       632.56
  326      317.377       631.84
  327      317.841       630.74
  328      318.305       630.56
  329      318.769       630.84
  330      319.233       631.34
  331      319.697       632.06
  332      320.161       632.44
  333      320.625       632.38
  334      321.089       632.28
  335      321.552       631.84
  336      322.016       630.74
  337      322.479       629.98
  338      322.943       629.16
  339      323.406        628.4
  340      323.869       627.92
  341      324.333       627.76
  342      324.796       627.56
  343      325.259       627.36
  344      325.722       627.42
  345      326.185       627.88
  346      326.647        629.1
  347       327.11       630.26
  348      327.573        630.9
  349      328.035       631.02
  350      328.498       630.64
  351       328.96       629.42
  352      329.423       628.34
  353      329.885       628.22
  354      330.347       628.64
  355       330.81       629.36
  356      331.272       630.56
  357      331.734       631.52
  358      332.196       631.78
  359      332.657        632.1
  360      333.119       632.46
  361      333.581       632.96
  362      334.043       633.86
  363      334.504       634.64
  364      334.966       634.74
  365      335.427        634.7
  366      335.888       634.34
  367       336.35        633.7
  368      336.811       633.34
  369      337.272       633.56
  370      337.733       633.74
  371      338.194       633.68
  372      338.655       633.44
  373      339.115       632.68
  374      339.576       631.38
  375      340.037       629.88
  376      340.497       629.04
  377      340.958       628.32
  378      341.418        627.6
  379      341.879       627.66
  380      342.339        628.6
  381      342.799        629.2
  382      343.259       629.66
  383      343.719       630.68
  384      344.179          631
  385      344.639       630.32
  386      345.099       629.54
  387      345.559        628.9
  388      346.018       628.36
  389      346.478       628.56
  390      346.937       629.34
  391      347.397       630.06
  392      347.856       630.56
  393      348.315       631.18
  394      348.774       631.22
  395      349.234       630.92
  396      349.693       630.82
  397      350.152       630.98
  398       350.61       631.02
  399      351.069       631.24
  400      351.528       632.02
  401      351.987       632.74
  402      352.445       633.16
  403      352.904       632.64
  404      353.362       631.92
  405       353.82       631.44
  406      354.279       631.24
  407      354.737       631.24
  408      355.195       631.42
  409      355.653       631.38
  410      356.111       630.98
  411      356.569       630.64
  412      357.027       630.58
  413      357.484       631.12
  414      357.942       631.52
  415      358.399       631.74
  416      358.857        631.9
  417      359.314       631.84
  418      359.772       631.96
  419      360.229       632.68
  420      360.686       632.84
  421      361.143        632.6
  422        361.6       632.44
  423      362.057       631.92
  424      362.514        631.6
  425      362.971       631.64
  426      363.427       631.48
  427      363.884        631.3
  428       364.34       631.74
  429      364.797        632.3
  430      365.253       633.46
  431      365.709        634.7
  432      366.166       634.98
  433      366.622       634.42
  434      367.078       633.74
  435      367.534        632.7
  436       367.99        631.7
  437      368.445       631.54
  438      368.901        631.7
  439      369.357       631.56
  440      369.812       630.94
  441      370.268        630.4
  442      370.723       630.06
  443      371.179       630.04
  444      371.634        630.3
  445      372.089       631.04
  446      372.544       631.64
  447      372.999       632.06
  448      373.454       632.08
  449      373.909       631.62
  450      374.364       631.22
  451      374.818       630.82
  452      375.273       630.58
  453      375.727        631.2
  454      376.182       631.92
  455      376.636        631.7
  456       377.09       631.32
  457      377.545       631.38
  458      377.999       631.48
  459      378.453       631.86
  460      378.907        633.1
  461      379.361       634.56
  462      379.814       634.78
  463      380.268       634.52
  464      380.722       634.42
  465      381.175       633.58
  466      381.629       632.36
  467      382.082       631.44
  468      382.535       630.12
  469      382.989       629.24
  470      383.442       629.92
  471      383.895        631.3
  472      384.348       632.64
  473      384.801       634.14
  474      385.253       635.18
  475      385.706       636.04
  476      386.159       638.24
  477      386.611       643.28
  478      387.064       651.52
  479      387.516       662.46
  480      387.968       673.82
  481      388.421       682.66
  482      388.873       686.62
  483      389.325       684.68
  484      389.777       677.56
  485      390.229       667.48
  486      390.681       657.16
  487      391.132       648.42
  488      391.584       642.16
  489      392.035       638.24
  490      392.487       635.94
  491      392.938       634.74
  492       393.39       634.16
  493      393.841       633.72
  494      394.292       633.28
  495      394.743       633.72
  496      395.194       634.54
  497      395.645       635.58
  498      396.096       636.18
  499      396.546       636.34
  500      396.997       635.94
  501      397.448        635.3
  502      397.898        634.7
  503      398.349       634.58
  504      398.799       634.44
  505      399.249       633.92
  506      399.699       633.44
  507      400.149       632.96
  508      400.599       632.54
  509      401.049       632.82
  510      401.499       633.38
  511      401.949       633.54
  512      402.398       633.56
  513      402.848       633.54
  514      403.297       633.54
  515      403.747       633.92
  516      404.196        634.6
  517      404.645        635.5
  518      405.094       636.22
  519      405.543       636.42
  520      405.992       636.02
  521      406.441       635.24
  522       406.89       634.48
  523      407.339          634
  524      407.787       633.82
  525      408.236       633.98
  526      408.684       634.06
  527      409.132       633.88
  528      409.581       633.64
  529      410.029       633.08
  530      410.477       632.28
  531      410.925       631.76
  532      411.373       631.54
  533      411.821       632.24
  534      412.269        633.8
  535      412.716       634.96
  536      413.164       635.54
  537      413.611       635.54
  538      414.059        634.4
  539      414.506       632.34
  540      414.953        630.6
  541        415.4       629.64
  542      415.847       629.28
  543      416.294       629.18
  544      416.741       629.18
  545      417.188       629.64
  546      417.635       630.06
  547      418.081       630.28
  548      418.528        631.1
  549      418.974       632.42
  550      419.421       633.24
  551      419.867       634.16
  552      420.313        634.9
  553      420.759       634.88
  554      421.205       634.18
  555      421.651       633.76
  556      422.097       633.64
  557      422.543       633.78
  558      422.989       634.12
  559      423.434       634.74
  560       423.88        634.9
  561      424.325       634.46
  562       424.77       633.98
  563      425.216        633.5
  564      425.661       632.84
  565      426.106       632.22
  566      426.551       632.04
  567      426.996        632.1
  568       427.44       632.24
  569      427.885       632.58
  570       428.33       632.64
  571      428.774       631.86
  572      429.219       630.88
  573      429.663       630.06
  574      430.107       629.54
  575      430.551       629.58
  576      430.996       629.98
  577       431.44       630.86
  578      431.883        631.7
  579      432.327       631.72
  580      432.771          632
  581      433.215       632.76
  582      433.658       632.96
  583      434.102       632.52
  584      434.545        632.5
  585      434.988       632.04
  586      435.431        631.6
  587      435.875       631.86
  588      436.318       632.68
  589      436.761       633.06
  590      437.203       633.24
  591      437.646        632.9
  592      438.089        632.1
  593      438.531       631.36
  594      438.974       631.04
  595      439.416       631.34
  596      439.859       632.06
  597      440.301       632.24
  598      440.743       631.88
  599      441.185       631.48
  600      441.627       630.84
  601      442.069       630.08
  602       442.51       629.38
  603      442.952        629.4
  604      443.394       630.12
  605      443.835       630.54
  606      444.277       630.72
  607      444.718       632.44
  608      445.159       635.38
  609        445.6       639.58
  610      446.041          646
  611      446.482        652.6
  612      446.923       657.06
  613      447.364       658.96
  614      447.804       657.36
  615      448.245       652.74
  616      448.685        647.9
  617      449.126       643.66
  618      449.566        639.8
  619      450.006       637.16
  620      450.447       635.68
  621      450.887       634.66
  622      451.326       633.72
  623      451.766        633.2
  624      452.206       633.04
  625      452.646       632.98
  626      453.085       633.12
  627      453.525       633.52
  628      453.964        634.1
  629      454.403       634.78
  630      454.843       634.92
  631      455.282       634.32
  632      455.721       634.02
  633       456.16       633.88
  634      456.599       633.54
  635      457.037       633.32
  636      457.476       633.28
  637      457.915       632.82
  638      458.353       632.64
  639      458.791       633.04
  640       459.23       633.38
  641      459.668       633.22
  642      460.106       632.72
  643      460.544        632.2
  644      460.982       631.46
  645       461.42       630.72
  646      461.857       630.92
  647      462.295        632.1
  648      462.733       632.74
  649       463.17       633.36
  650      463.607        634.3
  651      464.045        634.8
  652      464.482        634.7
  653      464.919       634.54
  654      465.356       633.84
  655      465.793       632.86
  656       466.23       632.04
  657      466.666       631.86
  658      467.103       631.54
  659      467.539       631.22
  660      467.976       631.28
  661      468.412       631.32
  662      468.848       631.02
  663      469.284       631.74
  664       469.72       633.34
  665      470.156       634.82
  666      470.592       636.38
  667      471.028        637.7
  668      471.464       637.76
  669      471.899       636.72
  670      472.335       635.18
  671       472.77          634
  672      473.205       633.16
  673      473.641        632.9
  674      474.076       633.24
  675      474.511       633.68
  676      474.946       633.46
  677       475.38       633.08
  678      475.815       632.62
  679       476.25       632.04
  680      476.684        631.7
  681      477.119       631.54
  682      477.553       631.58
  683      477.987       631.28
  684      478.421       630.76
  685      478.856       630.74
  686      479.289       631.38
  687      479.723       631.48
  688      480.157       631.68
  689      480.591       632.48
  690      481.024        632.7
  691      481.458       632.18
  692      481.891       631.88
  693      482.324       631.72
  694      482.758       631.12
  695      483.191       630.84
  696      483.624        630.7
  697      484.057       630.84
  698      484.489       630.74
  699      484.922       630.42
  700      485.355       630.66
  701      485.787       631.38
  702       486.22       631.78
  703      486.652       632.32
  704      487.084       633.32
  705      487.516       633.92
  706      487.948       634.18
  707       488.38       634.34
  708      488.812       634.48
  709      489.244       634.12
  710      489.676       633.52
  711      490.107       633.54
  712      490.539       633.78
  713       490.97       633.88
  714      491.401        634.6
  715      491.832        635.5
  716      492.263        635.2
  717      492.694       634.12
  718      493.125        633.4
  719      493.556       632.76
  720      493.987        631.9
  721      494.417       631.66
  722      494.848       631.76
  723      495.278       631.88
  724      495.708       631.66
  725      496.139        631.3
  726      496.569       631.24
  727      496.999       632.14
  728      497.429       633.14
  729      497.858       633.82
  730      498.288        634.7
  731      498.718       635.56
  732      499.147       636.42
  733      499.577        638.7
  734      500.006       642.72
  735      500.435       647.62
  736      500.864       652.44
  737      501.293       656.28
  738      501.722        657.6
  739      502.151       656.34
  740       502.58       653.24
  741      503.008       648.84
  742      503.437       644.04
  743      503.865       639.92
  744      504.293        636.9
  745      504.722       634.58
  746       505.15       633.04
  747      505.578       632.32
  748      506.006       631.86
  749      506.434       631.68
  750      506.861        631.8
  751      507.289       632.06
  752      507.716       632.04
  753      508.144       631.96
  754      508.571       631.54
  755      508.998       631.24
  756      509.425       631.26
  757      509.852       631.46
  758      510.279       631.26
  759      510.706        631.5
  760      511.133       631.48
  761       511.56       630.72
  762      511.986       630.08
  763      512.412       629.92
  764      512.839        629.3
  765      513.265       629.16
  766      513.691       629.88
  767      514.117       630.68
  768      514.543       631.42
  769      514.969       632.14
  770      515.395       632.42
  771       515.82       631.78
  772      516.246       630.62
  773      516.671       630.16
  774      517.096        630.1
  775      517.522       629.92
  776      517.947        630.4
  777      518.372       630.78
  778      518.797       630.52
  779      519.222       630.44
  780      519.646       630.42
  781      520.071       630.14
  782      520.495       630.16
  783       520.92       630.32
  784      521.344       630.34
  785      521.768       630.62
  786      522.192       631.22
  787      522.616       631.72
  788       523.04       632.14
  789      523.464       632.28
  790      523.888       631.98
  791      524.311       631.84
  792      524.735        632.2
  793      525.158       632.02
  794      525.581       631.26
  795      526.005       630.76
  796      526.428       630.46
  797      526.851       629.78
  798      527.274        629.6
  799      527.696       630.16
  800      528.119        630.6
  801      528.542       630.22
  802      528.964       629.84
  803      529.386       630.06
  804      529.809       630.36
  805      530.231       630.54
  806      530.653        630.9
  807      531.075        631.5
  808      531.497       631.32
  809      531.918       631.08
  810       532.34       631.38
  811      532.761        632.1
  812      533.183        632.5
  813      533.604       632.68
  814      534.025       632.66
  815      534.447       632.68
  816      534.868        632.7
  817      535.289       633.02
  818      535.709        633.8
  819       536.13       634.36
  820      536.551       634.46
  821      536.971        634.4
  822      537.392       634.58
  823      537.812       634.78
  824      538.232          635
  825      538.652       635.38
  826      539.072       635.44
  827      539.492       634.58
  828      539.912       633.76
  829      540.331       633.16
  830      540.751       632.72
  831       541.17       632.48
  832       541.59       632.36
  833      542.009       632.22
  834      542.428       632.08
  835      542.847       631.36
  836      543.266       630.64
  837      543.685       630.74
  838      544.104       630.94
  839      544.522       630.94
  840      544.941       631.02
  841      545.359       630.96
  842      545.778       630.86
  843      546.196       631.02
  844      546.614        631.5
  845      547.032        632.3
  846       547.45        633.3
  847      547.867        633.9
  848      548.285       633.96
  849      548.703       634.12
  850       549.12        634.4
  851      549.538       633.78
  852      549.955       632.46
  853      550.372       631.46
  854      550.789        630.6
  855      551.206       629.86
  856      551.623       629.94
  857      552.039       630.36
  858      552.456       630.64
  859      552.873       630.92
  860      553.289       631.28
  861      553.705       631.64
  862      554.121       632.36
  863      554.537       633.14
  864      554.953        633.5
  865      555.369       633.74
  866      555.785       633.82
  867      556.201       633.64
  868      556.616       633.08
  869      557.032        632.2
  870      557.447        631.3
  871      557.862       630.76
  872      558.277       630.24
  873      558.692       629.86
  874      559.107        629.8
  875      559.522       629.54
  876      559.937       629.14
  877      560.351       629.16
  878      560.766        629.3
  879       561.18       629.74
  880      561.595       630.36
  881      562.009       631.12
  882      562.423       631.72
  883      562.837       632.26
  884       563.25       632.24
  885      563.664       632.56
  886      564.078       632.96
  887      564.491       633.18
  888      564.905       633.38
  889      565.318       633.62
  890      565.731       633.64
  891      566.144       633.32
  892      566.557       633.02
  893       566.97       632.66
  894      567.383        632.5
  895      567.795        632.4
  896      568.208       632.34
  897       568.62       632.28
  898      569.033       632.16
  899      569.445       632.24
  900      569.857       632.08
  901      570.269       631.98
  902      570.681       632.26
  903      571.093       632.42
  904      571.504       632.16
  905      571.916       631.74
  906      572.327       631.16
  907      572.739       630.34
  908       573.15       630.02
  909      573.561          630
  910      573.972       630.06
  911      574.383       630.24
  912      574.794       630.06
  913      575.204       629.46
  914      575.615       629.12
  915      576.025       629.18
  916      576.436       629.02
  917      576.846       629.06
  918      577.256       629.36
  919      577.666       629.08
  920      578.076       628.54
  921      578.486       628.82
  922      578.896       629.86
  923      579.305       631.22
  924      579.715       632.88
  925      580.124       633.96
  926      580.533       634.02
  927      580.942       632.88
  928      581.351       631.66
  929       581.76        631.3
  930      582.169       631.68
  931      582.578       632.76
  932      582.986       634.44
  933      583.395        635.6
  934      583.803       635.48
  935      584.212       635.56
  936       584.62        638.1
  937      585.028        646.8
  938      585.436       666.22
  939      585.843       699.34
  940      586.251       744.54
  941      586.659       794.92
  942      587.066       839.54
  943      587.474          867
  944      587.881       869.76
  945      588.288       848.36
  946      588.695       809.96
  947      589.102       764.92
  948      589.509       722.96
  949      589.915       690.64
  950      590.322       668.48
  951      590.728       654.38
  952      591.135       646.76
  953      591.541        643.1
  954      591.947       641.32
  955      592.353       640.82
  956      592.759       640.76
  957      593.165        640.1
  958      593.571       638.86
  959      593.976       637.02
  960      594.382       635.06
  961      594.787       633.66
  962      595.192       632.56
  963      595.597       631.72
  964      596.002       631.72
  965      596.407       631.86
  966      596.812       632.58
  967      597.217        633.6
  968      597.621       634.24
  969      598.026       635.02
  970       598.43       635.94
  971      598.834       636.02
  972      599.238       635.84
  973      599.642       636.32
  974      600.046        636.6
  975       600.45       636.68
  976      600.854       637.12
  977      601.257        637.8
  978      601.661       638.12
  979      602.064       637.86
  980      602.467        637.2
  981       602.87       635.94
  982      603.273        634.7
  983      603.676       633.32
  984      604.079        632.2
  985      604.481       631.76
  986      604.884       631.78
  987      605.286       631.76
  988      605.689       632.26
  989      606.091       632.72
  990      606.493       632.56
  991      606.895       632.44
  992      607.297        632.1
  993      607.698        631.5
  994        608.1       630.62
  995      608.501        630.3
  996      608.903       630.66
  997      609.304       630.96
  998      609.705       631.28
  999      610.106       632.02
 1000      610.507       632.46
 1001      610.908       632.24
 1002      611.308       632.48
 1003      611.709       632.54
 1004      612.109       632.06
 1005       612.51       631.56
 1006       612.91       630.98
 1007       613.31        630.7
 1008       613.71       630.94
 1009       614.11       632.06
 1010       614.51       633.68
 1011      614.909       635.02
 1012      615.309       635.62
 1013      615.708       635.72
 1014      616.108       635.08
 1015      616.507       633.64
 1016      616.906       632.44
 1017      617.305       631.08
 1018      617.704       629.38
 1019      618.102       628.22
 1020      618.501       628.16
 1021      618.899       628.42
 1022      619.298       629.04
 1023      619.696       630.14
 1024      620.094       630.98
 1025      620.492       631.28
 1026       620.89       631.28
 1027      621.288       631.04
 1028      621.686       630.94
 1029      622.083       631.08
 1030       622.48       631.28
 1031      622.878       631.92
 1032      623.275       632.66
 1033      623.672       632.84
 1034      624.069       632.46
 1035      624.466        632.3
 1036      624.863       632.14
 1037      625.259       632.18
 1038      625.656       633.04
 1039      626.052       634.44
 1040      626.448       635.38
 1041      626.844       635.66
 1042      627.241       635.46
 1043      627.636       634.54
 1044      628.032       633.92
 1045      628.428       633.98
 1046      628.823       634.04
 1047      629.219       633.98
 1048      629.614        634.3
 1049      630.009       634.46
 1050      630.404       633.98
 1051      630.799       633.62
 1052      631.194       633.42
 1053      631.589       633.14
 1054      631.984        632.8
 1055      632.378       632.46
 1056      632.772       632.36
 1057      633.167        632.3
 1058      633.561       632.12
 1059      633.955        631.9
 1060      634.349       631.82
 1061      634.743       631.72
 1062      635.136       631.46
 1063       635.53       631.36
 1064      635.923       631.02
 1065      636.316       630.72
 1066       636.71        630.7
 1067      637.103        630.9
 1068      637.496       630.64
 1069      637.888       630.52
 1070      638.281       630.66
 1071      638.674       630.74
 1072      639.066       631.24
 1073      639.459        632.2
 1074      639.851       632.94
 1075      640.243        633.4
 1076      640.635        633.5
 1077      641.027       633.22
 1078      641.419       632.84
 1079       641.81       632.94
 1080      642.202       632.76
 1081      642.593        632.3
 1082      642.984       631.96
 1083      643.375       631.66
 1084      643.766       631.24
 1085      644.157        630.7
 1086      644.548       630.46
 1087      644.939       630.46
 1088      645.329       630.92
 1089       645.72       631.34
 1090       646.11        631.9
 1091        646.5       632.66
 1092       646.89       633.26
 1093       647.28       633.34
 1094       647.67       633.24
 1095       648.06       632.96
 1096      648.449       632.22
 1097      648.839       631.24
 1098      649.228       630.38
 1099      649.617       629.42
 1100      650.007       628.96
 1101      650.396        629.3
 1102      650.784       629.98
 1103      651.173       630.52
 1104      651.562        631.4
 1105       651.95       632.22
 1106      652.339       632.14
 1107      652.727        632.1
 1108      653.115       632.34
 1109      653.503       632.52
 1110      653.891        632.7
 1111      654.279       633.08
 1112      654.666       632.76
 1113      655.054       632.16
 1114      655.441       631.52
 1115      655.828       630.52
 1116      656.216        629.8
 1117      656.603        629.9
 1118      656.989       630.42
 1119      657.376        631.2
 1120      657.763       631.94
 1121      658.149       632.42
 1122      658.536       632.96
 1123      658.922       632.98
 1124      659.308       632.06
 1125      659.694       631.18
 1126       660.08       630.58
 1127      660.466       629.84
 1128      660.852       629.06
 1129      661.237       628.34
 1130      661.623       627.48
 1131      662.008       626.82
 1132      662.393        626.2
 1133      662.778       625.64
 1134      663.163       625.96
 1135      663.548        627.5
 1136      663.933       629.16
 1137      664.317       630.54
 1138      664.702       632.08
 1139      665.086          634
 1140       665.47       636.54
 1141      665.854       640.18
 1142      666.238       645.52
 1143      666.622       652.28
 1144      667.006       658.56
 1145      667.389       662.62
 1146      667.773        664.1
 1147      668.156        662.4
 1148      668.539       657.74
 1149      668.923       651.86
 1150      669.305       646.54
 1151      669.688       642.04
 1152      670.071       638.96
 1153      670.454       637.56
 1154      670.836       636.94
 1155      671.218       636.48
 1156      671.601       636.14
 1157      671.983       635.76
 1158      672.365        634.8
 1159      672.747       633.92
 1160      673.128       633.68
 1161       673.51       633.68
 1162      673.891       633.16
 1163      674.273        632.9
 1164      674.654       632.74
 1165      675.035        632.3
 1166      675.416       632.16
 1167      675.797       632.02
 1168      676.177       631.66
 1169      676.558       631.64
 1170      676.938        631.8
 1171      677.319        631.9
 1172      677.699       632.62
 1173      678.079        633.7
 1174      678.459       634.14
 1175      678.839       634.24
 1176      679.219       633.64
 1177      679.598       632.54
 1178      679.978       631.64
 1179      680.357       631.14
 1180      680.736       629.82
 1181      681.115       628.74
 1182      681.494        628.8
 1183      681.873       628.42
 1184      682.252       627.44
 1185       682.63       627.64
 1186      683.009       628.66
 1187      683.387       629.14
 1188      683.765       629.88
 1189      684.143       631.24
 1190      684.521       632.32
 1191      684.899       632.46
 1192      685.277       632.06
 1193      685.654       631.92
 1194      686.032       631.98
 1195      686.409       631.78
 1196      686.786       631.72
 1197      687.163       631.84
 1198       687.54       631.54
 1199      687.917          631
 1200      688.294       630.58
 1201       688.67        630.3
 1202      689.046       630.18
 1203      689.423       630.72
 1204      689.799       631.22
 1205      690.175       631.44
 1206      690.551       631.48
 1207      690.927        631.8
 1208      691.302       631.68
 1209      691.678       631.54
 1210      692.053       631.94
 1211      692.428        632.6
 1212      692.804       633.04
 1213      693.179       632.92
 1214      693.553        632.5
 1215      693.928       632.08
 1216      694.303        631.8
 1217      694.677       631.76
 1218      695.052       632.02
 1219      695.426       632.22
 1220        695.8       631.94
 1221      696.174       631.58
 1222      696.548       631.48
 1223      696.921        631.5
 1224      697.295        631.4
 1225      697.669       631.34
 1226      698.042       631.26
 1227      698.415       631.24
 1228      698.788       631.74
 1229      699.161       632.92
 1230      699.534        634.3
 1231      699.907       635.52
 1232      700.279       636.22
 1233      700.652       635.94
 1234      701.024       635.42
 1235      701.396       634.78
 1236      701.768       633.82
 1237       702.14          633
 1238      702.512       632.84
 1239      702.883       633.22
 1240      703.255        634.2
 1241      703.626        636.5
 1242      703.998        640.4
 1243      704.369       646.44
 1244       704.74       653.26
 1245      705.111       660.82
 1246      705.481       669.42
 1247      705.852       676.46
 1248      706.222       679.36
 1249      706.593       678.96
 1250      706.963       675.46
 1251      707.333        668.2
 1252      707.703        659.2
 1253      708.073       651.36
 1254      708.442       645.22
 1255      708.812       640.76
 1256      709.181        637.5
 1257      709.551       635.46
 1258       709.92        634.3
 1259      710.289       633.84
 1260      710.658       633.84
 1261      711.027       634.26
 1262      711.395       634.84
 1263      711.764       635.28
 1264      712.132       634.66
 1265        712.5       633.26
 1266      712.869       631.98
 1267      713.236        631.1
 1268      713.604       630.04
 1269      713.972       629.84
 1270       714.34       630.78
 1271      714.707          632
 1272      715.074       633.34
 1273      715.442          635
 1274      715.809       635.72
 1275      716.176       634.88
 1276      716.542       633.84
 1277      716.909        632.6
 1278      717.276       631.56
 1279      717.642        631.4
 1280      718.008       631.88
 1281      718.374       632.44
 1282       718.74        632.8
 1283      719.106        632.8
 1284      719.472       632.82
 1285      719.838       632.78
 1286      720.203       632.42
 1287      720.568       632.32
 1288      720.934        632.3
 1289      721.299       632.36
 1290      721.664       633.26
 1291      722.029       634.46
 1292      722.393       635.66
 1293      722.758       636.56
 1294      723.122        636.5
 1295      723.486       635.48
 1296      723.851        634.3
 1297      724.215       633.04
 1298      724.578        631.4
 1299      724.942       630.28
 1300      725.306       629.98
 1301      725.669        630.2
 1302      726.033       631.36
 1303      726.396       633.44
 1304      726.759       635.58
 1305      727.122        637.3
 1306      727.485       638.34
 1307      727.847       637.82
 1308       728.21        636.5
 1309      728.572       635.44
 1310      728.935       634.56
 1311      729.297        633.7
 1312      729.659          633
 1313      730.021       632.84
 1314      730.382       632.56
 1315      730.744       631.84
 1316      731.105       630.96
 1317      731.467       630.62
 1318      731.828        630.4
 1319      732.189       629.98
 1320       732.55          630
 1321      732.911        630.8
 1322      733.271       631.56
 1323      733.632       632.12
 1324      733.992        633.1
 1325      734.352       633.62
 1326      734.713       633.38
 1327      735.072       633.16
 1328      735.432          633
 1329      735.792       632.38
 1330      736.152       631.98
 1331      736.511       631.98
 1332       736.87       631.82
 1333      737.229        631.1
 1334      737.589       630.42
 1335      737.947       630.06
 1336      738.306       629.76
 1337      738.665       629.76
 1338      739.023       630.16
 1339      739.382       630.84
 1340       739.74          631
 1341      740.098       631.22
 1342      740.456        631.4
 1343      740.814       631.56
 1344      741.171       631.26
 1345      741.529       630.88
 1346      741.886       630.16
 1347      742.244        629.5
 1348      742.601       629.36
 1349      742.958          630
 1350      743.314       630.94
 1351      743.671        632.1
 1352      744.028       632.74
 1353      744.384       633.02
 1354       744.74          633
 1355      745.097       632.84
 1356      745.453       632.46
 1357      745.809       632.16
 1358      746.164       631.42
 1359       746.52        630.2
 1360      746.875        629.4
 1361      747.231       629.04
 1362      747.586       628.78
 1363      747.941       629.18
 1364      748.296        630.2
 1365      748.651       631.28
 1366      749.005       632.08
 1367       749.36       632.56
 1368      749.714       632.12
 1369      750.069        631.1
 1370      750.423        630.3
 1371      750.777       630.28
 1372       751.13       630.64
 1373      751.484          631
 1374      751.838       631.34
 1375      752.191       631.12
 1376      752.544       630.06
 1377      752.897       628.98
 1378       753.25       628.68
 1379      753.603        629.2
 1380      753.956        630.1
 1381      754.309       630.44
 1382      754.661       630.52
 1383      755.013       630.82
 1384      755.365       630.46
 1385      755.717       629.68
 1386      756.069       629.84
 1387      756.421       630.64
 1388      756.773       631.04
 1389      757.124       631.28
 1390      757.476       631.44
 1391      757.827       631.42
 1392      758.178       631.66
 1393      758.529       631.66
 1394      758.879       631.36
 1395       759.23       631.34
 1396      759.581       631.24
 1397      759.931       630.74
 1398      760.281       630.78
 1399      760.631       631.36
 1400      760.981       631.78
 1401      761.331        631.7
 1402      761.681       631.18
 1403       762.03       630.42
 1404      762.379       629.76
 1405      762.729       629.88
 1406      763.078       630.48
 1407      763.427        631.1
 1408      763.776       631.78
 1409      764.124       632.86
 1410      764.473        633.2
 1411      764.821        633.1
 1412      765.169       633.14
 1413      765.517       633.14
 1414      765.865       633.16
 1415      766.213          633
 1416      766.561        632.7
 1417      766.909       632.46
 1418      767.256       631.84
 1419      767.603       630.84
 1420       767.95       630.42
 1421      768.297       630.58
 1422      768.644       631.08
 1423      768.991       632.06
 1424      769.337       632.66
 1425      769.684       632.74
 1426       770.03        632.8
 1427      770.376        632.4
 1428      770.722       631.56
 1429      771.068        630.8
 1430      771.414       630.16
 1431      771.759       629.72
 1432      772.105       629.38
 1433       772.45        629.2
 1434      772.795       629.44
 1435       773.14       629.98
 1436      773.485       630.44
 1437       773.83       631.38
 1438      774.174       632.18
 1439      774.519       632.54
 1440      774.863       632.68
 1441      775.207       632.74
 1442      775.551       632.16
 1443      775.895          632
 1444      776.239       632.16
 1445      776.582       631.64
 1446      776.926       631.18
 1447      777.269       631.22
 1448      777.612       631.08
 1449      777.955        630.5
 1450      778.298        630.3
 1451      778.641       629.46
 1452      778.983       628.08
 1453      779.326       627.02
 1454      779.668       626.74
 1455       780.01       627.36
 1456      780.352        628.7
 1457      780.694       630.38
 1458      781.036       631.78
 1459      781.377       632.88
 1460      781.719       633.62
 1461       782.06       634.18
 1462      782.401       634.48
 1463      782.742       634.52
 1464      783.083       634.34
 1465      783.424       633.44
 1466      783.764        632.3
 1467      784.105       631.68
 1468      784.445       631.44
 1469      784.785       631.32
 1470      785.125       631.68
 1471      785.465        632.2
 1472      785.805       632.22
 1473      786.144       632.04
 1474      786.484       632.24
 1475      786.823        632.9
 1476      787.162        633.7
 1477      787.501        634.3
 1478       787.84       634.98
 1479      788.178       635.42
 1480      788.517       635.38
 1481      788.855       635.14
 1482      789.194        635.3
 1483      789.532       635.36
 1484       789.87       634.74
 1485      790.208       633.34
 1486      790.545        631.7
 1487      790.883       629.58
 1488       791.22        627.5
 1489      791.557       626.68
 1490      791.894       626.98
 1491      792.231        627.9
 1492      792.568        629.3
 1493      792.905       630.84
 1494      793.241        631.8
 1495      793.578       632.54
 1496      793.914          633
 1497       794.25       632.92
 1498      794.586       632.64
 1499      794.922       632.64
 1500      795.257       632.26
 1501      795.593       631.66
 1502      795.928       631.62
 1503      796.263       632.38
 1504      796.598       633.02
 1505      796.933       633.36
 1506      797.268        633.1
 1507      797.603       631.94
 1508      797.937        629.7
 1509      798.271       627.36
 1510      798.606       626.06
 1511       798.94       626.12
 1512      799.274       627.52
 1513      799.607        629.1
 1514      799.941       630.22
 1515      800.274       631.06
 1516      800.608       632.06
 1517      800.941       632.62
 1518      801.274       632.86
 1519      801.607       633.18
 1520      801.939        633.1
 1521      802.272        631.8
 1522      802.604       630.84
 1523      802.936       630.74
 1524      803.269       630.92
 1525      803.601       631.38
 1526      803.932       632.12
 1527      804.264       631.84
 1528      804.596       630.94
 1529      804.927       630.52
 1530      805.258       630.08
 1531      805.589       629.86
 1532       805.92        630.3
 1533      806.251       631.16
 1534      806.582       631.54
 1535      806.912        631.7
 1536      807.242       631.38
 1537      807.573       630.74
 1538      807.903       630.54
 1539      808.232       629.78
 1540      808.562       629.24
 1541      808.892        629.7
 1542      809.221       630.34
 1543      809.551       629.78
 1544       809.88       629.06
 1545      810.209       628.42
 1546      810.538       627.42
 1547      810.866       626.56
 1548      811.195       626.66
 1549      811.523       627.56
 1550      811.851       628.34
 1551       812.18       628.76
 1552      812.507       628.68
 1553      812.835       628.02
 1554      813.163       627.68
 1555       813.49       627.92
 1556      813.818       628.68
 1557      814.145       630.16
 1558      814.472        632.2
 1559      814.799       633.96
 1560      815.126       634.66
 1561      815.452       634.64
 1562      815.779       634.48
 1563      816.105       633.76
 1564      816.431       631.72
 1565      816.757       629.54
 1566      817.083        628.1
 1567      817.409       626.74
 1568      817.734        625.3
 1569       818.06       624.82
 1570      818.385       625.32
 1571       818.71       626.06
 1572      819.035        626.8
 1573       819.36       627.92
 1574      819.685       629.02
 1575      820.009       630.06
 1576      820.333       630.62
 1577      820.658        631.1
 1578      820.982       631.64
 1579      821.305       631.82
 1580      821.629       631.76
 1581      821.953        631.7
 1582      822.276       631.64
 1583        822.6        631.8
 1584      822.923        632.6
 1585      823.246       633.26
 1586      823.569       633.64
 1587      823.891       633.56
 1588      824.214       632.78
 1589      824.536        631.9
 1590      824.858        631.3
 1591       825.18       630.76
 1592      825.502        630.5
 1593      825.824       630.86
 1594      826.146       631.18
 1595      826.467        631.7
 1596      826.789       632.76
 1597       827.11       633.96
 1598      827.431       634.88
 1599      827.752       635.64
 1600      828.072       635.54
 1601      828.393        634.4
 1602      828.713       632.82
 1603      829.034       631.06
 1604      829.354       629.16
 1605      829.674       628.02
 1606      829.993        628.4
 1607      830.313       629.56
 1608      830.633       630.74
 1609      830.952        632.2
 1610      831.271        633.1
 1611       831.59       632.98
 1612      831.909       632.54
 1613      832.228       632.42
 1614      832.546       632.38
 1615      832.865       632.68
 1616      833.183          633
 1617      833.501          633
 1618      833.819       632.68
 1619      834.137       632.36
 1620      834.455       631.98
 1621      834.772       631.66
 1622      835.089       631.46
 1623      835.407       631.28
 1624      835.724       631.14
 1625       836.04       631.06
 1626      836.357       631.46
 1627      836.674       632.36
 1628       836.99        633.5
 1629      837.306       634.26
 1630      837.623       634.62
 1631      837.939       634.78
 1632      838.254        634.6
 1633       838.57       634.58
 1634      838.886          635
 1635      839.201       635.44
 1636      839.516        635.6
 1637      839.831       635.28
 1638      840.146       634.64
 1639      840.461       634.14
 1640      840.775          634
 1641       841.09       633.88
 1642      841.404       634.18
 1643      841.718       634.36
 1644      842.032       634.08
 1645      842.346       634.34
 1646      842.659       634.72
 1647      842.973       634.92
 1648      843.286       634.74
 1649      843.599       634.34
 1650      843.912       633.64
 1651      844.225        633.4
 1652      844.538       633.68
 1653      844.851       634.34
 1654      845.163       635.12
 1655      845.475        635.3
 1656      845.787        635.1
 1657      846.099       634.52
 1658      846.411       634.12
 1659      846.723       633.98
 1660      847.034       633.94
 1661      847.345       633.34
 1662      847.657       632.74
 1663      847.968        632.4
 1664      848.278       632.04
 1665      848.589       631.92
 1666        848.9       632.46
 1667       849.21       633.44
 1668       849.52        633.9
 1669       849.83       634.02
 1670       850.14       634.12
 1671       850.45       634.34
 1672      850.759       634.54
 1673      851.069       634.44
 1674      851.378        634.4
 1675      851.687       634.12
 1676      851.996       633.08
 1677      852.305       631.86
 1678      852.614        631.4
 1679      852.922       631.14
 1680       853.23       631.58
 1681      853.539       632.54
 1682      853.847       633.04
 1683      854.154        633.3
 1684      854.462       633.74
 1685       854.77       633.88
 1686      855.077       633.38
 1687      855.384       632.34
 1688      855.691       631.42
 1689      855.998        630.6
 1690      856.305       629.66
 1691      856.612       629.42
 1692      856.918       629.48
 1693      857.224       629.42
 1694       857.53       629.56
 1695      857.836        629.6
 1696      858.142       630.06
 1697      858.448       631.66
 1698      858.753       633.24
 1699      859.059       634.32
 1700      859.364        635.3
 1701      859.669       635.38
 1702      859.974       634.92
 1703      860.278       634.32
 1704      860.583        633.5
 1705      860.887       633.24
 1706      861.192       633.14
 1707      861.496       632.38
 1708        861.8       631.72
 1709      862.103       631.54
 1710      862.407        630.9
 1711       862.71       630.22
 1712      863.014        629.8
 1713      863.317       629.48
 1714       863.62       629.46
 1715      863.922       629.54
 1716      864.225       629.62
 1717      864.527       630.08
 1718       864.83       631.02
 1719      865.132       631.88
 1720      865.434          633
 1721      865.736       634.46
 1722      866.037       635.44
 1723      866.339       635.44
 1724       866.64        634.6
 1725      866.941       633.24
 1726      867.242       632.12
 1727      867.543        631.3
 1728      867.844        630.9
 1729      868.145        630.8
 1730      868.445       630.84
 1731      868.745       630.62
 1732      869.045       630.46
 1733      869.345       630.52
 1734      869.645        630.9
 1735      869.944       631.36
 1736      870.244        631.4
 1737      870.543       631.44
 1738      870.842       631.56
 1739      871.141       631.72
 1740       871.44       631.66
 1741      871.739       631.34
 1742      872.037       630.98
 1743      872.335       630.62
 1744      872.634       630.28
 1745      872.931       630.58
 1746      873.229       631.26
 1747      873.527       631.82
 1748      873.824       632.26
 1749      874.122       632.86
 1750      874.419       633.32
 1751      874.716       634.22
 1752      875.013       635.58
 1753      875.309        637.2
 1754      875.606       638.04
 1755      875.902       638.12
 1756      876.199       637.44
 1757      876.495       636.02
 1758       876.79        634.3
 1759      877.086       632.94
 1760      877.382       632.08
 1761      877.677       631.82
 1762      877.972       631.98
 1763      878.267       632.26
 1764      878.562       632.92
 1765      878.857        633.5
 1766      879.152       633.68
 1767      879.446       633.92
 1768       879.74       634.42
 1769      880.034       634.78
 1770      880.328        634.7
 1771      880.622       634.48
 1772      880.916       634.18
 1773      881.209       633.92
 1774      881.502        633.4
 1775      881.795       632.64
 1776      882.088       631.96
 1777      882.381        631.1
 1778      882.674       629.96
 1779      882.966       629.04
 1780      883.258       628.56
 1781      883.551       628.92
 1782      883.843       630.06
 1783      884.134       631.24
 1784      884.426       632.76
 1785      884.717       634.44
 1786      885.009       635.22
 1787        885.3       635.12
 1788      885.591       634.54
 1789      885.882       633.32
 1790      886.172       631.92
 1791      886.463       630.88
 1792      886.753       630.32
 1793      887.043       630.34
 1794      887.333        630.5
 1795      887.623       630.62
 1796      887.913       630.62
 1797      888.202       630.84
 1798      888.492       630.46
 1799      888.781       629.96
 1800       889.07       630.24
 1801      889.359       630.66
 1802      889.647       630.32
 1803      889.936       630.82
 1804      890.224       631.48
 1805      890.512       631.16
 1806        890.8       631.34
 1807      891.088       631.72
 1808      891.376       631.44
 1809      891.663       630.94
 1810      891.951       630.72
 1811      892.238        630.2
 1812      892.525       630.18
 1813      892.812       630.84
 1814      893.099       631.94
 1815      893.385       633.06
 1816      893.671       633.48
 1817      893.958       633.02
 1818      894.244       631.88
 1819       894.53       631.02
 1820      894.815       630.68
 1821      895.101       630.64
 1822      895.386       631.24
 1823      895.671       632.04
 1824      895.956       632.26
 1825      896.241       632.18
 1826      896.526       632.36
 1827       896.81        632.3
 1828      897.095       632.06
 1829      897.379       631.76
 1830      897.663        631.3
 1831      897.947       630.94
 1832      898.231        630.8
 1833      898.514       630.76
 1834      898.798       630.78
 1835      899.081       630.92
 1836      899.364       630.58
 1837      899.647       630.24
 1838      899.929       630.38
 1839      900.212       631.16
 1840      900.494        631.7
 1841      900.776       632.54
 1842      901.058        633.5
 1843       901.34       633.88
 1844      901.622       633.88
 1845      901.904        633.9
 1846      902.185       633.78
 1847      902.466       633.14
 1848      902.747       632.62
 1849      903.028       632.32
 1850      903.309       632.36
 1851      903.589        632.2
 1852       903.87       631.84
 1853       904.15        631.6
 1854       904.43       631.66
 1855       904.71       631.94
 1856      904.989       632.58
 1857      905.269       633.38
 1858      905.548        633.5
 1859      905.827        632.9
 1860      906.106       632.08
 1861      906.385       631.14
 1862      906.664       630.48
 1863      906.942       630.54
 1864      907.221       630.88
 1865      907.499       631.34
 1866      907.777        632.3
 1867      908.055        633.7
 1868      908.332        634.7
 1869       908.61       634.78
 1870      908.887        634.6
 1871      909.164        633.6
 1872      909.441       631.84
 1873      909.718        630.7
 1874      909.995        630.2
 1875      910.271       629.72
 1876      910.548       629.72
 1877      910.824       629.92
 1878        911.1       629.74
 1879      911.375        629.9
 1880      911.651       630.22
 1881      911.927        630.4
 1882      912.202       630.56
 1883      912.477       630.92
 1884      912.752       631.24
 1885      913.027       631.18
 1886      913.301       630.92
 1887      913.576       630.92
 1888       913.85       630.88
 1889      914.124       631.04
 1890      914.398       631.54
 1891      914.672       632.22
 1892      914.945       632.66
 1893      915.219        633.1
 1894      915.492        633.1
 1895      915.765       632.92
 1896      916.038       632.82
 1897      916.311        632.7
 1898      916.583       632.26
 1899      916.856       631.42
 1900      917.128       630.68
 1901        917.4       630.44
 1902      917.672       630.52
 1903      917.944        630.8
 1904      918.215       631.72
 1905      918.486       632.52
 1906      918.758       632.58
 1907      919.029       632.14
 1908      919.299       631.64
 1909       919.57       630.54
 1910      919.841       629.44
 1911      920.111       629.16
 1912      920.381       629.56
 1913      920.651       630.16
 1914      920.921        630.9
 1915      921.191       631.38
 1916       921.46          631
 1917      921.729       630.28
 1918      921.999       629.78
 1919      922.268       629.86
 1920      922.536       630.34
 1921      922.805       630.76
 1922      923.073       631.52
 1923      923.342       632.34
 1924       923.61       632.54
 1925      923.878       632.82
 1926      924.145       633.46
 1927      924.413        633.4
 1928       924.68       632.66
 1929      924.948       631.76
 1930      925.215       630.46
 1931      925.482       629.46
 1932      925.748       629.14
 1933      926.015       629.38
 1934      926.281       630.16
 1935      926.547       631.34
 1936      926.813       632.58
 1937      927.079       633.42
 1938      927.345       633.32
 1939       927.61       632.84
 1940      927.876       632.32
 1941      928.141       631.48
 1942      928.406       630.84
 1943      928.671       630.88
 1944      928.935       631.36
 1945        929.2       632.18
 1946      929.464       632.82
 1947      929.728        633.1
 1948      929.992        633.4
 1949      930.256       632.98
 1950       930.52       631.82
 1951      930.783       631.18
 1952      931.046       630.86
 1953      931.309       630.52
 1954      931.572        630.8
 1955      931.835       631.42
 1956      932.097       631.76
 1957       932.36       631.98
 1958      932.622       631.82
 1959      932.884       631.58
 1960      933.146       631.24
 1961      933.408        630.9
 1962      933.669       630.82
 1963       933.93       630.58
 1964      934.192       630.02
 1965      934.453       630.02
 1966      934.713       630.06
 1967      934.974       630.08
 1968      935.234       630.22
 1969      935.495       630.62
 1970      935.755       630.34
 1971      936.015       629.66
 1972      936.274       629.24
 1973      936.534       629.92
 1974      936.793       630.54
 1975      937.053        631.4
 1976      937.312       632.42
 1977      937.571       632.78
 1978      937.829       632.38
 1979      938.088        632.3
 1980      938.346       632.42
 1981      938.604       632.98
 1982      938.862       633.66
 1983       939.12       634.32
 1984      939.378        634.6
 1985      939.635        634.2
 1986      939.893        633.4
 1987       940.15        632.4
 1988      940.407       631.16
 1989      940.663        630.1
 1990       940.92       629.78
 1991      941.176        629.8
 1992      941.433       630.16
 1993      941.689       630.84
 1994      941.944       631.58
 1995        942.2       632.26
 1996      942.456        632.7
 1997      942.711        633.1
 1998      942.966       633.48
 1999      943.221        633.6
 2000      943.476       633.12
 2001      943.731        632.4
 2002      943.985       631.52
 2003      944.239       630.48
 2004      944.493       629.66
 2005      944.747       629.34
 2006      945.001       629.18
 2007      945.255        629.6
 2008      945.508       630.18
 2009      945.761       630.38
 2010      946.014       630.28
 2011      946.267       630.32
 2012       946.52          630
 2013      946.772       629.44
 2014      947.025       629.52
 2015      947.277       630.24
 2016      947.529       631.28
 2017      947.781       632.32
 2018      948.032        633.4
 2019      948.284       634.24
 2020      948.535        634.4
 2021      948.786       633.32
 2022      949.037        632.2
 2023      949.288        631.3
 2024      949.538       630.14
 2025      949.789       629.02
 2026      950.039       628.48
 2027      950.289       628.54
 2028      950.539       629.02
 2029      950.788        629.5
 2030      951.038       629.66
 2031      951.287       630.32
 2032      951.536       630.68
 2033      951.785       630.74
 2034      952.034       630.68
 2035      952.282       630.72
 2036      952.531       631.02
 2037      952.779       631.08
 2038      953.027       630.26
 2039      953.275       630.24
 2040      953.523       631.58
 2041       953.77       632.76
 2042      954.017       633.68
 2043      954.264        634.9
 2044      954.511       635.32
 2045      954.758       634.58
 2046      955.005      633.875
 2047      955.251          633
