scansci Spectrometer Data File
--- Measurement Setting ---
Type: Sample Spectrum
Date: Mon Oct 16 16:08:38 2023
User: (Reserved by scansci)
Serial: (Reserved by scansci)
Channel: No. 11
Integration Time: 1
Average: 10
Boxcar: 2
Electrical Dark: No-corrected
Time Normalize: (Reserved by scansci)
Dual-beam: (Reserved by scansci)
Reference Ch: (Reserved by scansci)
--- Measurement Data ---
Pixel   Wavelength   Intensity
    0        344.4        734.3
    1      344.867       734.35
    2      345.334       734.32
    3      345.801       734.28
    4      346.268       734.32
    5      346.735       734.36
    6      347.202       734.34
    7      347.669       734.38
    8      348.135        734.2
    9      348.602       733.82
   10      349.068       733.78
   11      349.535       734.02
   12      350.001       734.22
   13      350.467       734.72
   14      350.933       735.24
   15      351.399        735.1
   16      351.866       734.66
   17      352.331       734.26
   18      352.797        734.1
   19      353.263       734.42
   20      353.729        734.8
   21      354.194       735.12
   22       354.66        735.4
   23      355.126        735.2
   24      355.591       734.68
   25      356.056       734.56
   26      356.522       734.28
   27      356.987       734.06
   28      357.452       733.94
   29      357.917       733.82
   30      358.382       733.76
   31      358.847       733.84
   32      359.312       733.76
   33      359.776       734.14
   34      360.241       734.16
   35      360.706        733.5
   36       361.17       732.62
   37      361.634        732.4
   38      362.099        732.1
   39      362.563       731.88
   40      363.027       732.16
   41      363.491       732.88
   42      363.955       733.24
   43      364.419       733.38
   44      364.883       734.12
   45      365.347        735.2
   46      365.811       735.66
   47      366.274       735.44
   48      366.738       735.04
   49      367.201       734.26
   50      367.665       733.06
   51      368.128       732.14
   52      368.592        731.7
   53      369.055       731.48
   54      369.518       731.46
   55      369.981       731.68
   56      370.444       731.96
   57      370.907       732.38
   58       371.37       732.54
   59      371.832       732.12
   60      372.295       731.88
   61      372.757       732.24
   62       373.22       732.76
   63      373.682       733.98
   64      374.145        735.7
   65      374.607       736.88
   66      375.069       737.34
   67      375.531       737.32
   68      375.993       736.62
   69      376.455          736
   70      376.917       735.54
   71      377.379       734.96
   72      377.841        734.5
   73      378.302        734.2
   74      378.764        733.5
   75      379.225       732.82
   76      379.687       733.22
   77      380.148       734.06
   78      380.609       734.52
   79      381.071       735.36
   80      381.532       736.54
   81      381.993        736.4
   82      382.454       735.78
   83      382.915        735.6
   84      383.375       735.28
   85      383.836       734.58
   86      384.297       734.36
   87      384.757       734.62
   88      385.218        735.1
   89      385.678       735.66
   90      386.138       736.36
   91      386.599       737.18
   92      387.059       737.64
   93      387.519        737.7
   94      387.979       737.48
   95      388.439       736.82
   96      388.899       736.04
   97      389.358       735.48
   98      389.818       735.12
   99      390.278       735.14
  100      390.737        735.4
  101      391.197       735.96
  102      391.656       736.24
  103      392.115       736.22
  104      392.575       736.06
  105      393.034       735.46
  106      393.493       734.26
  107      393.952       733.46
  108      394.411       733.22
  109       394.87       732.78
  110      395.328       732.72
  111      395.787       733.28
  112      396.246       733.46
  113      396.704       733.02
  114      397.163       732.46
  115      397.621       732.26
  116      398.079       732.26
  117      398.537       732.34
  118      398.995       732.44
  119      399.454       732.62
  120      399.911       733.02
  121      400.369       733.32
  122      400.827       733.42
  123      401.285       733.66
  124      401.743       734.12
  125        402.2        734.1
  126      402.658       734.44
  127      403.115       735.28
  128      403.572       735.84
  129       404.03       736.42
  130      404.487        736.9
  131      404.944       736.48
  132      405.401       735.72
  133      405.858       735.26
  134      406.315        734.8
  135      406.771       734.74
  136      407.228       735.02
  137      407.685       735.42
  138      408.141       735.84
  139      408.598       735.98
  140      409.054       735.76
  141       409.51       735.26
  142      409.967       734.54
  143      410.423        733.7
  144      410.879        732.9
  145      411.335       732.18
  146      411.791       731.58
  147      412.246        731.5
  148      412.702       732.44
  149      413.158       733.58
  150      413.613       734.66
  151      414.069       736.04
  152      414.524       736.98
  153       414.98       736.72
  154      415.435        735.9
  155       415.89       735.06
  156      416.345          734
  157        416.8       733.18
  158      417.255       733.06
  159       417.71        733.4
  160      418.165       734.02
  161      418.619       734.94
  162      419.074       735.86
  163      419.529       735.94
  164      419.983       735.62
  165      420.437        735.4
  166      420.892       735.12
  167      421.346       734.72
  168        421.8       734.18
  169      422.254        733.5
  170      422.708       733.02
  171      423.162        732.7
  172      423.616       732.76
  173       424.07       733.98
  174      424.523       735.48
  175      424.977        735.8
  176       425.43       735.66
  177      425.884       735.02
  178      426.337       733.92
  179       426.79       733.06
  180      427.243       732.84
  181      427.697       732.92
  182       428.15       733.06
  183      428.602       733.54
  184      429.055       734.54
  185      429.508        735.9
  186      429.961       736.56
  187      430.413       736.94
  188      430.866        737.2
  189      431.318       737.24
  190      431.771        736.8
  191      432.223        736.4
  192      432.675       736.22
  193      433.127       735.98
  194      433.579       735.14
  195      434.031       734.78
  196      434.483       735.36
  197      434.935       735.86
  198      435.387        735.7
  199      435.838       735.82
  200       436.29       735.56
  201      436.741       734.78
  202      437.193       734.46
  203      437.644       734.78
  204      438.095       735.24
  205      438.546       735.96
  206      438.997        736.6
  207      439.448       736.74
  208      439.899       736.88
  209       440.35       736.82
  210      440.801        736.3
  211      441.251       735.28
  212      441.702       734.06
  213      442.152       732.92
  214      442.603       732.46
  215      443.053       732.54
  216      443.503        733.5
  217      443.954       735.04
  218      444.404       735.94
  219      444.854       735.78
  220      445.304       735.24
  221      445.753        734.4
  222      446.203       733.82
  223      446.653       733.86
  224      447.102       734.54
  225      447.552       735.54
  226      448.001       736.48
  227      448.451       736.64
  228        448.9       736.34
  229      449.349       736.16
  230      449.798       735.76
  231      450.247       734.92
  232      450.696       734.46
  233      451.145        734.9
  234      451.594        735.5
  235      452.042       736.24
  236      452.491       737.48
  237      452.939       738.14
  238      453.388        737.3
  239      453.836        735.7
  240      454.285        734.3
  241      454.733        733.3
  242      455.181        732.7
  243      455.629       732.66
  244      456.077        733.2
  245      456.525       733.48
  246      456.972       733.28
  247       457.42        733.1
  248      457.868       733.02
  249      458.315          733
  250      458.763       733.44
  251       459.21       733.76
  252      459.657       734.14
  253      460.104       734.66
  254      460.552        734.7
  255      460.999        734.1
  256      461.446        733.7
  257      461.892        733.1
  258      462.339        732.4
  259      462.786        732.1
  260      463.233       732.06
  261      463.679       732.52
  262      464.125       733.18
  263      464.572       733.68
  264      465.018       733.88
  265      465.464       733.92
  266       465.91       733.48
  267      466.356       733.22
  268      466.802       733.54
  269      467.248       733.84
  270      467.694        734.1
  271       468.14       734.22
  272      468.585       734.24
  273      469.031       734.18
  274      469.476        734.2
  275      469.922       734.36
  276      470.367       734.56
  277      470.812       734.66
  278      471.257       734.66
  279      471.702       734.62
  280      472.147        734.6
  281      472.592       734.48
  282      473.037       733.94
  283      473.482       733.24
  284      473.926       732.96
  285      474.371       732.74
  286      474.815       732.46
  287      475.259       732.82
  288      475.704       733.26
  289      476.148       733.44
  290      476.592        733.9
  291      477.036       734.56
  292       477.48       734.74
  293      477.924       735.02
  294      478.368       735.26
  295      478.811       734.94
  296      479.255       734.66
  297      479.698       734.96
  298      480.142       735.42
  299      480.585       735.96
  300      481.028       736.52
  301      481.472       736.94
  302      481.915       737.06
  303      482.358        736.8
  304      482.801       736.38
  305      483.244       736.26
  306      483.686       736.18
  307      484.129       735.82
  308      484.572       735.24
  309      485.014       734.82
  310      485.456       734.56
  311      485.899       734.56
  312      486.341       735.12
  313      486.783       736.08
  314      487.225       736.24
  315      487.667       735.76
  316      488.109        734.8
  317      488.551       733.68
  318      488.993       732.66
  319      489.434        732.5
  320      489.876       732.96
  321      490.318       733.92
  322      490.759       734.48
  323        491.2       734.74
  324      491.641          735
  325      492.083       735.46
  326      492.524       735.86
  327      492.965        736.3
  328      493.406       736.14
  329      493.846        735.4
  330      494.287       733.96
  331      494.728        732.2
  332      495.168       730.92
  333      495.609        730.8
  334      496.049       731.54
  335      496.489       732.64
  336       496.93       734.08
  337       497.37        735.5
  338       497.81       736.18
  339       498.25        736.3
  340       498.69       736.64
  341      499.129       737.24
  342      499.569       737.18
  343      500.009        736.9
  344      500.448       736.06
  345      500.888        734.5
  346      501.327       732.36
  347      501.766        730.6
  348      502.206       730.02
  349      502.645       730.14
  350      503.084       730.86
  351      503.523       732.16
  352      503.961       733.36
  353        504.4       733.94
  354      504.839       734.34
  355      505.277       734.64
  356      505.716       734.78
  357      506.154       734.86
  358      506.593       734.88
  359      507.031          735
  360      507.469       734.92
  361      507.907        734.8
  362      508.345       734.82
  363      508.783        734.3
  364      509.221        733.5
  365      509.659       732.58
  366      510.096       731.94
  367      510.534        731.8
  368      510.971        732.4
  369      511.409       733.14
  370      511.846       733.66
  371      512.283       733.56
  372       512.72       733.12
  373      513.157       732.64
  374      513.594       732.32
  375      514.031       732.68
  376      514.468       733.68
  377      514.905       734.48
  378      515.341       734.64
  379      515.778       734.56
  380      516.214       734.38
  381       516.65       733.92
  382      517.087       733.42
  383      517.523       733.06
  384      517.959       732.82
  385      518.395       732.52
  386      518.831       731.86
  387      519.267       731.48
  388      519.702        731.7
  389      520.138        732.3
  390      520.574       732.94
  391      521.009        733.7
  392      521.444       734.52
  393       521.88       734.82
  394      522.315        734.7
  395       522.75       734.54
  396      523.185       734.36
  397       523.62       734.06
  398      524.055       734.02
  399       524.49       734.34
  400      524.924        734.7
  401      525.359       735.08
  402      525.794       735.54
  403      526.228       736.26
  404      526.662        736.6
  405      527.097       736.32
  406      527.531       735.76
  407      527.965       734.98
  408      528.399       733.82
  409      528.833        733.1
  410      529.267       732.84
  411        529.7       732.88
  412      530.134       732.86
  413      530.568       732.54
  414      531.001       731.92
  415      531.434       731.54
  416      531.868       731.52
  417      532.301       731.94
  418      532.734       732.38
  419      533.167       732.62
  420        533.6        732.6
  421      534.033       732.24
  422      534.466        731.6
  423      534.898       731.44
  424      535.331       731.68
  425      535.763       732.16
  426      536.196       733.02
  427      536.628       733.94
  428       537.06       734.32
  429      537.493       734.38
  430      537.925       734.26
  431      538.357       733.24
  432      538.788       732.24
  433       539.22       732.06
  434      539.652       732.18
  435      540.084       732.02
  436      540.515       732.02
  437      540.947       732.28
  438      541.378       732.38
  439      541.809       732.42
  440       542.24       733.06
  441      542.672       733.98
  442      543.103       734.26
  443      543.533       734.52
  444      543.964       735.24
  445      544.395        735.9
  446      544.826        736.5
  447      545.256       737.08
  448      545.687       737.06
  449      546.117       736.14
  450      546.547        734.7
  451      546.978       733.46
  452      547.408       733.16
  453      547.838       733.66
  454      548.268       734.58
  455      548.698       735.44
  456      549.127       736.32
  457      549.557        736.3
  458      549.987       735.22
  459      550.416       733.54
  460      550.846          732
  461      551.275       730.98
  462      551.704       730.46
  463      552.133       730.48
  464      552.562       731.38
  465      552.991       732.76
  466       553.42          734
  467      553.849        735.5
  468      554.278       737.34
  469      554.706       738.94
  470      555.135       741.06
  471      555.563       744.66
  472      555.991       750.44
  473       556.42       757.44
  474      556.848       763.28
  475      557.276       766.32
  476      557.704        766.2
  477      558.132       762.42
  478       558.56       756.32
  479      558.987       750.94
  480      559.415       746.78
  481      559.843       743.36
  482       560.27       740.42
  483      560.697        738.2
  484      561.125       736.68
  485      561.552       736.08
  486      561.979       735.78
  487      562.406       736.04
  488      562.833        736.5
  489       563.26       736.56
  490      563.686       736.62
  491      564.113       736.82
  492       564.54       737.04
  493      564.966       737.36
  494      565.392       737.26
  495      565.819       736.32
  496      566.245       735.28
  497      566.671       733.92
  498      567.097       732.18
  499      567.523        731.3
  500      567.949       731.24
  501      568.374       731.22
  502        568.8       731.36
  503      569.226       732.02
  504      569.651       732.94
  505      570.077       733.94
  506      570.502        735.1
  507      570.927       736.48
  508      571.352       737.56
  509      571.777        737.7
  510      572.202        737.6
  511      572.627       737.48
  512      573.052       736.82
  513      573.476        735.6
  514      573.901       734.74
  515      574.325       734.08
  516       574.75        733.3
  517      575.174       733.02
  518      575.598       733.04
  519      576.022       733.02
  520      576.446       733.18
  521       576.87        733.4
  522      577.294        733.6
  523      577.718       733.92
  524      578.142          734
  525      578.565       733.64
  526      578.989       733.66
  527      579.412        734.2
  528      579.835       734.84
  529      580.259        735.1
  530      580.682       734.94
  531      581.105       734.66
  532      581.528       734.04
  533      581.951       733.44
  534      582.373        733.5
  535      582.796       734.36
  536      583.219        735.2
  537      583.641       735.82
  538      584.063       736.36
  539      584.486       737.26
  540      584.908       738.66
  541       585.33       742.02
  542      585.752       749.72
  543      586.174        761.9
  544      586.596       776.62
  545      587.018        789.6
  546      587.439        797.5
  547      587.861       797.96
  548      588.282       790.64
  549      588.704       778.06
  550      589.125       764.82
  551      589.546        753.7
  552      589.967       745.48
  553      590.388       740.86
  554      590.809       738.74
  555       591.23       738.18
  556      591.651       737.92
  557      592.071       737.52
  558      592.492        736.9
  559      592.912        735.9
  560      593.333       734.56
  561      593.753       733.76
  562      594.173       733.78
  563      594.593       733.92
  564      595.013       733.98
  565      595.433        734.3
  566      595.853       734.46
  567      596.273        733.9
  568      596.693       733.34
  569      597.112        733.2
  570      597.532       733.26
  571      597.951       733.54
  572       598.37       734.36
  573      598.789       735.66
  574      599.208       736.78
  575      599.627       737.06
  576      600.046       736.72
  577      600.465       736.36
  578      600.884       735.96
  579      601.303        735.5
  580      601.721        735.5
  581      602.139       736.02
  582      602.558       736.34
  583      602.976       736.06
  584      603.394        735.9
  585      603.812       735.74
  586       604.23       735.48
  587      604.648        735.3
  588      605.066       735.42
  589      605.484       735.64
  590      605.901       735.96
  591      606.319        736.2
  592      606.736       736.28
  593      607.154       736.32
  594      607.571       736.22
  595      607.988       735.86
  596      608.405       735.18
  597      608.822       734.76
  598      609.239       734.34
  599      609.656       734.06
  600      610.072       734.46
  601      610.489       734.76
  602      610.905        734.1
  603      611.322       733.32
  604      611.738       732.76
  605      612.154       732.04
  606       612.57       731.52
  607      612.986       731.48
  608      613.402       731.76
  609      613.818       731.82
  610      614.234       731.64
  611       614.65       731.88
  612      615.065       732.62
  613      615.481       733.46
  614      615.896        734.4
  615      616.311       735.24
  616      616.727        736.1
  617      617.142        736.8
  618      617.557       736.56
  619      617.972       735.78
  620      618.386       735.34
  621      618.801       734.44
  622      619.216        733.2
  623       619.63       732.42
  624      620.045       732.38
  625      620.459       732.56
  626      620.873       733.26
  627      621.287       734.46
  628      621.702        735.4
  629      622.116        735.7
  630      622.529       735.82
  631      622.943       735.82
  632      623.357       735.58
  633      623.771        735.7
  634      624.184       736.26
  635      624.597       736.96
  636      625.011       737.28
  637      625.424       737.48
  638      625.837       737.32
  639       626.25        736.3
  640      626.663       734.96
  641      627.076       733.74
  642      627.489       732.72
  643      627.901       732.16
  644      628.314       732.54
  645      628.726        733.4
  646      629.139        734.4
  647      629.551       735.44
  648      629.963       736.54
  649      630.375       737.22
  650      630.787       737.26
  651      631.199          737
  652      631.611       736.34
  653      632.023       735.36
  654      632.434       734.64
  655      632.846       734.22
  656      633.257       734.06
  657      633.669        734.3
  658       634.08       734.98
  659      634.491       735.32
  660      634.902       735.26
  661      635.313       734.92
  662      635.724       734.58
  663      636.135       734.34
  664      636.545       734.18
  665      636.956       734.14
  666      637.366       734.58
  667      637.777       734.78
  668      638.187        734.6
  669      638.597       734.56
  670      639.007       734.88
  671      639.417       735.26
  672      639.827       735.46
  673      640.237        735.4
  674      640.647        735.1
  675      641.056       735.06
  676      641.466       735.52
  677      641.875       735.94
  678      642.285       736.32
  679      642.694       736.76
  680      643.103       736.72
  681      643.512       736.28
  682      643.921        736.5
  683       644.33          737
  684      644.739       737.36
  685      645.148       738.12
  686      645.556        739.1
  687      645.965       739.42
  688      646.373       739.16
  689      646.781       739.02
  690      647.189       738.52
  691      647.598       737.58
  692      648.006       736.72
  693      648.414       736.52
  694      648.821        736.4
  695      649.229       736.38
  696      649.637        736.3
  697      650.044       736.26
  698      650.452       736.24
  699      650.859       736.02
  700      651.266       735.42
  701      651.673       734.68
  702       652.08       734.04
  703      652.487       733.46
  704      652.894       733.22
  705      653.301       733.22
  706      653.708       733.26
  707      654.114       733.54
  708      654.521       733.86
  709      654.927       734.18
  710      655.333       734.64
  711       655.74        735.3
  712      656.146        735.8
  713      656.552        736.1
  714      656.958       736.24
  715      657.363       736.24
  716      657.769       736.16
  717      658.175        736.1
  718       658.58       735.98
  719      658.986       735.96
  720      659.391        735.9
  721      659.796       736.08
  722      660.201       736.66
  723      660.606       737.16
  724      661.011       737.32
  725      661.416       737.36
  726      661.821        737.5
  727      662.225       737.46
  728       662.63        737.6
  729      663.034        737.8
  730      663.439       737.68
  731      663.843       736.88
  732      664.247       736.12
  733      664.651       735.62
  734      665.055       735.36
  735      665.459       735.28
  736      665.863       735.38
  737      666.267       735.42
  738       666.67       735.12
  739      667.074       734.62
  740      667.477       734.52
  741       667.88        734.9
  742      668.283       734.88
  743      668.687       734.78
  744       669.09       735.02
  745      669.492       735.16
  746      669.895       735.12
  747      670.298        735.2
  748      670.701       735.66
  749      671.103       736.24
  750      671.505       736.88
  751      671.908       737.34
  752       672.31        737.3
  753      672.712        736.7
  754      673.114       735.84
  755      673.516       734.78
  756      673.918       734.14
  757       674.32        734.2
  758      674.721        734.3
  759      675.123       734.34
  760      675.524       734.52
  761      675.926       734.24
  762      676.327       733.52
  763      676.728       732.72
  764      677.129       732.46
  765       677.53       732.68
  766      677.931        733.4
  767      678.332       734.58
  768      678.732       735.32
  769      679.133       735.36
  770      679.533       735.34
  771      679.934       734.76
  772      680.334       733.44
  773      680.734       732.78
  774      681.134       732.52
  775      681.534       732.24
  776      681.934       732.04
  777      682.334        732.2
  778      682.733        732.4
  779      683.133       732.52
  780      683.532          732
  781      683.932       731.32
  782      684.331        731.2
  783       684.73       731.52
  784      685.129        731.8
  785      685.528       732.32
  786      685.927       733.44
  787      686.326        734.8
  788      686.725       735.82
  789      687.123       736.54
  790      687.522       737.18
  791       687.92       737.52
  792      688.319       737.12
  793      688.717       736.38
  794      689.115       735.84
  795      689.513       735.62
  796      689.911       735.68
  797      690.309       736.22
  798      690.706       736.62
  799      691.104        736.6
  800      691.501       736.26
  801      691.899       735.56
  802      692.296       734.68
  803      692.693       734.42
  804       693.09       734.42
  805      693.488       734.24
  806      693.884       734.06
  807      694.281       733.88
  808      694.678       733.26
  809      695.075       732.68
  810      695.471       732.32
  811      695.868       732.24
  812      696.264       731.92
  813       696.66        731.6
  814      697.056        731.6
  815      697.452       732.14
  816      697.848       732.72
  817      698.244       733.32
  818       698.64       734.18
  819      699.035       734.74
  820      699.431        734.5
  821      699.826          734
  822      700.222       733.98
  823      700.617        733.9
  824      701.012       733.52
  825      701.407       733.32
  826      701.802       733.28
  827      702.197       732.94
  828      702.592        732.4
  829      702.986        732.5
  830      703.381       732.98
  831      703.775       733.02
  832       704.17       732.88
  833      704.564       733.24
  834      704.958       733.48
  835      705.352       733.48
  836      705.746       733.86
  837       706.14       734.04
  838      706.533       734.02
  839      706.927       733.88
  840      707.321       733.68
  841      707.714        733.7
  842      708.107       733.94
  843      708.501        733.9
  844      708.894       734.08
  845      709.287       734.52
  846       709.68       734.58
  847      710.073       734.72
  848      710.465       735.04
  849      710.858       735.16
  850      711.251       735.14
  851      711.643       735.14
  852      712.035       734.98
  853      712.428       734.62
  854       712.82       734.24
  855      713.212       733.64
  856      713.604       733.14
  857      713.995        732.8
  858      714.387       732.96
  859      714.779       733.54
  860       715.17       734.72
  861      715.562       736.38
  862      715.953       737.46
  863      716.344       737.92
  864      716.735       737.82
  865      717.127       737.36
  866      717.517       736.06
  867      717.908       735.14
  868      718.299       734.26
  869       718.69       733.68
  870       719.08       733.44
  871      719.471        733.5
  872      719.861       733.86
  873      720.251       734.44
  874      720.641       734.72
  875      721.031       734.52
  876      721.421       734.66
  877      721.811       734.96
  878      722.201       735.58
  879       722.59       736.68
  880       722.98        738.2
  881      723.369       739.44
  882      723.759       739.88
  883      724.148       739.62
  884      724.537       739.18
  885      724.926       738.64
  886      725.315       737.64
  887      725.704       736.48
  888      726.092        735.8
  889      726.481       735.38
  890       726.87       734.82
  891      727.258       734.28
  892      727.646       734.72
  893      728.034       735.26
  894      728.423       735.26
  895      728.811       735.32
  896      729.198       735.78
  897      729.586        735.7
  898      729.974        734.9
  899      730.362          734
  900      730.749       733.12
  901      731.136       732.64
  902      731.524       732.86
  903      731.911       733.84
  904      732.298       735.18
  905      732.685        736.5
  906      733.072       737.24
  907      733.459        737.4
  908      733.845        737.4
  909      734.232       737.12
  910      734.618       736.52
  911      735.005       735.76
  912      735.391       734.86
  913      735.777       733.72
  914      736.163       732.82
  915      736.549       732.22
  916      736.935       731.92
  917      737.321       732.14
  918      737.706       732.82
  919      738.092       733.68
  920      738.477       734.32
  921      738.863       734.78
  922      739.248       735.48
  923      739.633       736.78
  924      740.018       737.88
  925      740.403       738.66
  926      740.788       739.74
  927      741.173        740.6
  928      741.557       740.16
  929      741.942        739.5
  930      742.326        739.6
  931      742.711       739.84
  932      743.095       739.84
  933      743.479        740.4
  934      743.863       741.38
  935      744.247       742.24
  936      744.631       742.52
  937      745.015        742.3
  938      745.398       741.92
  939      745.782       740.88
  940      746.165        739.4
  941      746.548       738.46
  942      746.932        738.1
  943      747.315       737.54
  944      747.698        737.4
  945      748.081       737.78
  946      748.463       738.74
  947      748.846       740.08
  948      749.229       741.72
  949      749.611        743.1
  950      749.993       744.26
  951      750.376       744.34
  952      750.758       743.88
  953       751.14       744.12
  954      751.522       744.92
  955      751.904       745.82
  956      752.285       747.06
  957      752.667       748.16
  958      753.049       748.94
  959       753.43       749.66
  960      753.811        750.2
  961      754.193       750.88
  962      754.574       752.58
  963      754.955       754.24
  964      755.336        755.5
  965      755.717        757.1
  966      756.097          760
  967      756.478       765.98
  968      756.858          780
  969      757.239       809.04
  970      757.619       859.58
  971      757.999       938.64
  972      758.379       1054.4
  973      758.759      1208.36
  974      759.139      1376.94
  975      759.519      1539.52
  976      759.899      1688.44
  977      760.278      1792.52
  978      760.658      1798.94
  979      761.037      1708.28
  980      761.417      1557.92
  981      761.796       1365.5
  982      762.175       1162.1
  983      762.554      1000.38
  984      762.933       900.52
  985      763.311        841.4
  986       763.69       806.36
  987      764.068          785
  988      764.447       772.16
  989      764.825       764.32
  990      765.203       758.64
  991      765.582        754.5
  992       765.96        752.1
  993      766.338        751.6
  994      766.715       754.74
  995      767.093       763.64
  996      767.471        779.9
  997      767.848       806.16
  998      768.226       842.68
  999      768.603       885.82
 1000       768.98       928.02
 1001      769.357       961.08
 1002      769.734       976.66
 1003      770.111       967.62
 1004      770.488       936.78
 1005      770.864       894.56
 1006      771.241       849.62
 1007      771.617       809.28
 1008      771.994       781.38
 1009       772.37       764.74
 1010      772.746        754.7
 1011      773.122       749.08
 1012      773.498        745.9
 1013      773.874       743.16
 1014       774.25       741.24
 1015      774.625       740.34
 1016      775.001       739.34
 1017      775.376        738.3
 1018      775.751       737.94
 1019      776.127       737.52
 1020      776.502       737.24
 1021      776.877       737.72
 1022      777.252       738.48
 1023      777.626        738.1
 1024      778.001        737.7
 1025      778.375       737.16
 1026       778.75       736.12
 1027      779.124       735.54
 1028      779.499       735.98
 1029      779.873       736.48
 1030      780.247       736.88
 1031      780.621       737.28
 1032      780.994        737.7
 1033      781.368       737.92
 1034      781.742        738.2
 1035      782.115       738.44
 1036      782.489       738.78
 1037      782.862        739.1
 1038      783.235        740.4
 1039      783.608       744.32
 1040      783.981       752.18
 1041      784.354       765.12
 1042      784.727       784.36
 1043        785.1       810.36
 1044      785.472       839.48
 1045      785.845       863.38
 1046      786.217       873.24
 1047      786.589       867.58
 1048      786.961       848.72
 1049      787.333       820.52
 1050      787.705       791.82
 1051      788.077       771.24
 1052      788.449       758.74
 1053       788.82       751.16
 1054      789.192        746.4
 1055      789.563       743.38
 1056      789.934       741.52
 1057      790.306        740.4
 1058      790.677       740.22
 1059      791.048       741.76
 1060      791.419        743.8
 1061      791.789       745.32
 1062       792.16        746.9
 1063       792.53       748.28
 1064      792.901       748.72
 1065      793.271       748.18
 1066      793.641        747.6
 1067      794.012       746.88
 1068      794.382        745.6
 1069      794.751       743.98
 1070      795.121       743.18
 1071      795.491       742.54
 1072      795.861        742.1
 1073       796.23       742.18
 1074      796.599       742.38
 1075      796.969       742.52
 1076      797.338       742.72
 1077      797.707       742.26
 1078      798.076       741.82
 1079      798.445       741.64
 1080      798.813       741.42
 1081      799.182       741.02
 1082       799.55        740.9
 1083      799.919        740.7
 1084      800.287       740.82
 1085      800.655       740.82
 1086      801.023       740.92
 1087      801.391       741.14
 1088      801.759       741.22
 1089      802.127       741.14
 1090      802.495       741.44
 1091      802.862       742.24
 1092       803.23       743.52
 1093      803.597        745.5
 1094      803.964        748.3
 1095      804.331       752.56
 1096      804.698       759.72
 1097      805.065       770.66
 1098      805.432        785.7
 1099      805.799       804.72
 1100      806.165       824.96
 1101      806.532       839.56
 1102      806.898       843.56
 1103      807.264        837.3
 1104      807.631       823.42
 1105      807.997       806.34
 1106      808.363       792.94
 1107      808.728       791.34
 1108      809.094        808.3
 1109       809.46       849.24
 1110      809.825       925.02
 1111      810.191      1048.18
 1112      810.556       1221.7
 1113      810.921      1428.02
 1114      811.286      1637.42
 1115      811.651      1804.78
 1116      812.016      1864.74
 1117      812.381      1796.04
 1118      812.745      1634.26
 1119       813.11      1419.36
 1120      813.474      1194.54
 1121      813.839      1018.38
 1122      814.203       909.28
 1123      814.567       844.14
 1124      814.931       805.38
 1125      815.295          783
 1126      815.659       769.82
 1127      816.022       761.68
 1128      816.386       756.86
 1129      816.749       755.44
 1130      817.113        756.6
 1131      817.476        762.1
 1132      817.839        775.7
 1133      818.202       798.94
 1134      818.565       832.62
 1135      818.928       876.56
 1136      819.291       925.38
 1137      819.653       961.16
 1138      820.016       970.34
 1139      820.378        954.5
 1140       820.74       918.56
 1141      821.102       869.12
 1142      821.464       822.62
 1143      821.826       791.04
 1144      822.188       772.34
 1145       822.55       761.46
 1146      822.912       755.46
 1147      823.273       751.82
 1148      823.634       750.06
 1149      823.996       749.58
 1150      824.357       750.54
 1151      824.718       754.38
 1152      825.079       764.32
 1153       825.44       782.64
 1154      825.801       810.42
 1155      826.161       849.36
 1156      826.522        898.3
 1157      826.882       944.94
 1158      827.242       972.72
 1159      827.603       979.08
 1160      827.963       969.86
 1161      828.323          950
 1162      828.682       932.84
 1163      829.042       933.68
 1164      829.402       957.08
 1165      829.761       999.38
 1166      830.121      1053.64
 1167       830.48      1097.02
 1168      830.839      1108.14
 1169      831.198      1084.78
 1170      831.557      1031.52
 1171      831.916       955.52
 1172      832.275        878.8
 1173      832.634       823.54
 1174      832.992       789.76
 1175      833.351       768.92
 1176      833.709          756
 1177      834.067       747.92
 1178      834.425       742.96
 1179      834.783       740.22
 1180      835.141       739.02
 1181      835.499       738.34
 1182      835.857       737.76
 1183      836.214        737.3
 1184      836.572       736.44
 1185      836.929       735.08
 1186      837.286        733.9
 1187      837.644       733.12
 1188      838.001       732.38
 1189      838.357       731.62
 1190      838.714        731.1
 1191      839.071        730.8
 1192      839.428       730.82
 1193      839.784       731.22
 1194       840.14       732.34
 1195      840.497       733.92
 1196      840.853       735.12
 1197      841.209        735.9
 1198      841.565        736.4
 1199       841.92       736.64
 1200      842.276       736.44
 1201      842.632       736.18
 1202      842.987       736.44
 1203      843.343        736.8
 1204      843.698        736.7
 1205      844.053       736.66
 1206      844.408       736.98
 1207      844.763       736.96
 1208      845.118        736.3
 1209      845.472        735.3
 1210      845.827       734.34
 1211      846.181        733.8
 1212      846.536       733.34
 1213       846.89       733.24
 1214      847.244       733.96
 1215      847.598       734.76
 1216      847.952       734.58
 1217      848.306       734.42
 1218       848.66       735.12
 1219      849.013       735.84
 1220      849.367       736.58
 1221       849.72       738.96
 1222      850.073       743.04
 1223      850.427       749.36
 1224       850.78       759.12
 1225      851.133       772.76
 1226      851.485       788.62
 1227      851.838       801.94
 1228      852.191       807.04
 1229      852.543       803.64
 1230      852.896       793.62
 1231      853.248       778.34
 1232        853.6       762.64
 1233      853.952       751.72
 1234      854.304       745.02
 1235      854.656       740.96
 1236      855.007       738.98
 1237      855.359       737.98
 1238       855.71       737.42
 1239      856.062       737.36
 1240      856.413       736.78
 1241      856.764       735.96
 1242      857.115       735.26
 1243      857.466       734.58
 1244      857.817       734.16
 1245      858.168       734.44
 1246      858.518       734.84
 1247      858.869       734.98
 1248      859.219       734.84
 1249      859.569       734.08
 1250       859.92       733.22
 1251       860.27       732.02
 1252      860.619       731.32
 1253      860.969       731.66
 1254      861.319       732.64
 1255      861.669        733.4
 1256      862.018       734.22
 1257      862.367       734.66
 1258      862.717       734.34
 1259      863.066       733.68
 1260      863.415        732.9
 1261      863.764       732.52
 1262      864.112       732.54
 1263      864.461       732.74
 1264       864.81       732.78
 1265      865.158       732.58
 1266      865.507       732.18
 1267      865.855       732.02
 1268      866.203       732.46
 1269      866.551       733.36
 1270      866.899       734.58
 1271      867.247       735.76
 1272      867.594       736.64
 1273      867.942       736.68
 1274      868.289       736.06
 1275      868.637       735.68
 1276      868.984       735.62
 1277      869.331       735.08
 1278      869.678       734.36
 1279      870.025       734.26
 1280      870.372        734.4
 1281      870.718       734.48
 1282      871.065        734.8
 1283      871.411       735.56
 1284      871.758       736.08
 1285      872.104        736.4
 1286       872.45       736.28
 1287      872.796        736.1
 1288      873.142       735.86
 1289      873.488       735.62
 1290      873.833       735.02
 1291      874.179       734.98
 1292      874.524       735.48
 1293      874.869       735.86
 1294      875.215       735.98
 1295       875.56       736.52
 1296      875.905       737.14
 1297       876.25        738.1
 1298      876.594       740.24
 1299      876.939       745.08
 1300      877.283       755.56
 1301      877.628       774.88
 1302      877.972       805.52
 1303      878.316       851.02
 1304       878.66        910.2
 1305      879.004        965.9
 1306      879.348       995.96
 1307      879.692        994.9
 1308      880.035       965.46
 1309      880.379          912
 1310      880.722       851.88
 1311      881.066       805.92
 1312      881.409        777.8
 1313      881.752       760.92
 1314      882.095       750.76
 1315      882.438       744.42
 1316       882.78        740.7
 1317      883.123       738.46
 1318      883.465       737.38
 1319      883.808       737.38
 1320       884.15       737.56
 1321      884.492       737.22
 1322      884.834       736.76
 1323      885.176       736.08
 1324      885.518       735.22
 1325      885.859       734.38
 1326      886.201       733.74
 1327      886.542       733.62
 1328      886.884       733.52
 1329      887.225       733.44
 1330      887.566          734
 1331      887.907       734.94
 1332      888.248       735.28
 1333      888.589       735.68
 1334      888.929       736.88
 1335       889.27       738.32
 1336       889.61       739.06
 1337      889.951       739.18
 1338      890.291       739.46
 1339      890.631       739.36
 1340      890.971       738.54
 1341      891.311       738.28
 1342       891.65       739.22
 1343       891.99       740.52
 1344      892.329       742.52
 1345      892.669       747.26
 1346      893.008       757.22
 1347      893.347       773.92
 1348      893.686        799.9
 1349      894.025       837.88
 1350      894.364       883.26
 1351      894.703       918.08
 1352      895.041       930.54
 1353       895.38       921.08
 1354      895.718        891.5
 1355      896.056       847.34
 1356      896.395       805.52
 1357      896.733       777.36
 1358      897.071       760.74
 1359      897.408       751.12
 1360      897.746       745.84
 1361      898.084       743.14
 1362      898.421       741.54
 1363      898.758        740.4
 1364      899.095       739.26
 1365      899.433        738.3
 1366       899.77       737.36
 1367      900.106       736.18
 1368      900.443       734.92
 1369       900.78       734.38
 1370      901.116       734.28
 1371      901.453       734.06
 1372      901.789        734.2
 1373      902.125       735.24
 1374      902.461        736.3
 1375      902.797       736.52
 1376      903.133        736.6
 1377      903.469       736.88
 1378      903.804       736.84
 1379       904.14       736.04
 1380      904.475       735.56
 1381       904.81       735.74
 1382      905.146        735.9
 1383      905.481        735.6
 1384      905.815        735.8
 1385       906.15        736.1
 1386      906.485        735.9
 1387      906.819       735.92
 1388      907.154       736.42
 1389      907.488        736.2
 1390      907.822       735.38
 1391      908.156       734.72
 1392       908.49       734.28
 1393      908.824       733.78
 1394      909.158       733.58
 1395      909.492       734.26
 1396      909.825       735.24
 1397      910.159       735.76
 1398      910.492       735.54
 1399      910.825       735.62
 1400      911.158          736
 1401      911.491          736
 1402      911.824       735.84
 1403      912.157       735.72
 1404      912.489       735.36
 1405      912.822       734.62
 1406      913.154        733.6
 1407      913.486       732.98
 1408      913.818       733.06
 1409       914.15        733.3
 1410      914.482       733.48
 1411      914.814       734.12
 1412      915.146       734.36
 1413      915.477        734.1
 1414      915.809        734.1
 1415       916.14       734.22
 1416      916.471       734.22
 1417      916.802       734.44
 1418      917.133        734.8
 1419      917.464        734.9
 1420      917.795       734.78
 1421      918.125       734.58
 1422      918.456        734.7
 1423      918.786       734.88
 1424      919.116       734.92
 1425      919.446       735.14
 1426      919.776       735.54
 1427      920.106       735.38
 1428      920.436       734.94
 1429      920.766       734.32
 1430      921.095       733.18
 1431      921.425       731.94
 1432      921.754       730.96
 1433      922.083       730.28
 1434      922.412       729.88
 1435      922.741       729.88
 1436       923.07       730.02
 1437      923.399       730.54
 1438      923.727       731.04
 1439      924.056       731.78
 1440      924.384       732.94
 1441      924.713       734.12
 1442      925.041       735.02
 1443      925.369       736.02
 1444      925.697       736.48
 1445      926.024        736.2
 1446      926.352        735.6
 1447       926.68       735.08
 1448      927.007       735.06
 1449      927.334       735.44
 1450      927.662        735.8
 1451      927.989       736.06
 1452      928.316       735.86
 1453      928.643       735.24
 1454      928.969       734.82
 1455      929.296       734.58
 1456      929.622       734.32
 1457      929.949        734.6
 1458      930.275       734.68
 1459      930.601       734.48
 1460      930.927       734.46
 1461      931.253       734.46
 1462      931.579       734.38
 1463      931.905        734.7
 1464       932.23       734.96
 1465      932.556        734.7
 1466      932.881       734.62
 1467      933.206        734.4
 1468      933.531       733.82
 1469      933.856       732.98
 1470      934.181        732.5
 1471      934.506       732.42
 1472       934.83       731.82
 1473      935.155        731.2
 1474      935.479        731.3
 1475      935.803       731.88
 1476      936.128       732.32
 1477      936.452       733.02
 1478      936.775       733.34
 1479      937.099       733.14
 1480      937.423       732.38
 1481      937.746       731.88
 1482       938.07       731.58
 1483      938.393       731.42
 1484      938.716       731.72
 1485      939.039       732.58
 1486      939.362       732.92
 1487      939.685       733.14
 1488      940.008       733.62
 1489      940.331        733.8
 1490      940.653       733.76
 1491      940.975       733.54
 1492      941.298       732.84
 1493       941.62       732.52
 1494      941.942       732.64
 1495      942.264       732.54
 1496      942.585       732.36
 1497      942.907       733.16
 1498      943.229        733.9
 1499       943.55       733.62
 1500      943.871       733.28
 1501      944.192       733.84
 1502      944.513       734.34
 1503      944.834        733.9
 1504      945.155       733.72
 1505      945.476       733.96
 1506      945.796       733.74
 1507      946.117       732.82
 1508      946.437       732.56
 1509      946.757       732.56
 1510      947.078       732.52
 1511      947.398       733.02
 1512      947.717        733.6
 1513      948.037        733.7
 1514      948.357       733.82
 1515      948.676       734.12
 1516      948.996       734.22
 1517      949.315        734.8
 1518      949.634       735.76
 1519      949.953       736.72
 1520      950.272       736.96
 1521      950.591       736.38
 1522      950.909        734.9
 1523      951.228       733.72
 1524      951.546       732.76
 1525      951.865       732.04
 1526      952.183       731.84
 1527      952.501       732.36
 1528      952.819       732.82
 1529      953.137       733.24
 1530      953.454       733.92
 1531      953.772       734.38
 1532      954.089       734.74
 1533      954.407       735.04
 1534      954.724       734.92
 1535      955.041       734.38
 1536      955.358       733.58
 1537      955.675       732.68
 1538      955.992       731.88
 1539      956.308       731.16
 1540      956.625       730.68
 1541      956.941       731.26
 1542      957.257       732.32
 1543      957.574       733.44
 1544       957.89       734.38
 1545      958.206       735.12
 1546      958.521       734.88
 1547      958.837       734.26
 1548      959.152        733.5
 1549      959.468       733.18
 1550      959.783        733.2
 1551      960.098        733.4
 1552      960.413        733.3
 1553      960.728       733.46
 1554      961.043       733.82
 1555      961.358        733.8
 1556      961.672       733.64
 1557      961.987       733.46
 1558      962.301       732.96
 1559      962.615       732.22
 1560       962.93       731.94
 1561      963.244       732.06
 1562      963.557       732.74
 1563      963.871       733.86
 1564      964.185       735.22
 1565      964.498       736.14
 1566      964.812       737.06
 1567      965.125        737.6
 1568      965.438       737.56
 1569      965.751       736.88
 1570      966.064       735.94
 1571      966.377        734.7
 1572      966.689       733.86
 1573      967.002       733.32
 1574      967.314       733.16
 1575      967.626       733.52
 1576      967.939       733.98
 1577      968.251       733.86
 1578      968.563       733.56
 1579      968.874       732.88
 1580      969.186       731.88
 1581      969.498       731.44
 1582      969.809       731.52
 1583       970.12        731.3
 1584      970.431        731.6
 1585      970.743       732.12
 1586      971.053       732.18
 1587      971.364       732.82
 1588      971.675       734.14
 1589      971.986        735.2
 1590      972.296       736.06
 1591      972.606       736.76
 1592      972.917       736.64
 1593      973.227       736.22
 1594      973.537       735.64
 1595      973.847       734.66
 1596      974.156       733.72
 1597      974.466        733.3
 1598      974.775       733.22
 1599      975.085        733.6
 1600      975.394       734.74
 1601      975.703       736.04
 1602      976.012       736.92
 1603      976.321       737.22
 1604       976.63       736.78
 1605      976.938       735.64
 1606      977.247       734.46
 1607      977.555       733.14
 1608      977.863       732.04
 1609      978.172       731.56
 1610       978.48       731.66
 1611      978.787        731.9
 1612      979.095        732.4
 1613      979.403       733.16
 1614       979.71       734.44
 1615      980.018        735.8
 1616      980.325        736.9
 1617      980.632        737.5
 1618      980.939        737.4
 1619      981.246       736.12
 1620      981.553       734.32
 1621       981.86       732.78
 1622      982.166       731.84
 1623      982.473       731.28
 1624      982.779       731.24
 1625      983.085        731.9
 1626      983.391       732.24
 1627      983.697       732.24
 1628      984.003       732.32
 1629      984.309       732.72
 1630      984.614       733.06
 1631       984.92       733.22
 1632      985.225       733.36
 1633       985.53       733.84
 1634      985.835       734.08
 1635       986.14       733.76
 1636      986.445        733.6
 1637       986.75       733.98
 1638      987.054        734.2
 1639      987.359       734.28
 1640      987.663       734.86
 1641      987.967       735.62
 1642      988.271        735.8
 1643      988.575       735.52
 1644      988.879        735.3
 1645      989.183       734.94
 1646      989.487       734.94
 1647       989.79       735.14
 1648      990.093       735.26
 1649      990.397        735.3
 1650        990.7       735.48
 1651      991.003        735.3
 1652      991.306       735.16
 1653      991.608       735.54
 1654      991.911       735.72
 1655      992.213        735.2
 1656      992.516       734.68
 1657      992.818       734.42
 1658       993.12        734.2
 1659      993.422       734.16
 1660      993.724       734.28
 1661      994.026       734.42
 1662      994.327       734.46
 1663      994.629       734.26
 1664       994.93       734.08
 1665      995.232       734.24
 1666      995.533        734.3
 1667      995.834       734.06
 1668      996.135       733.86
 1669      996.435        733.9
 1670      996.736       733.96
 1671      997.036       733.92
 1672      997.337       733.52
 1673      997.637        732.6
 1674      997.937        731.7
 1675      998.237       731.34
 1676      998.537       731.14
 1677      998.837       731.28
 1678      999.137          732
 1679      999.436       732.62
 1680      999.735       732.52
 1681      1000.03       732.68
 1682      1000.33       733.22
 1683      1000.63        733.4
 1684      1000.93       733.74
 1685      1001.23       734.22
 1686      1001.53        734.1
 1687      1001.83       734.12
 1688      1002.13        734.4
 1689      1002.42       734.24
 1690      1002.72       733.84
 1691      1003.02       733.76
 1692      1003.32       733.24
 1693      1003.62       733.02
 1694      1003.91        733.3
 1695      1004.21       733.86
 1696      1004.51        734.4
 1697      1004.81       735.06
 1698       1005.1       735.32
 1699       1005.4       735.18
 1700       1005.7       734.92
 1701      1005.99       734.72
 1702      1006.29        734.3
 1703      1006.59       734.08
 1704      1006.88       734.08
 1705      1007.18       733.66
 1706      1007.48       732.92
 1707      1007.77        732.8
 1708      1008.07       732.46
 1709      1008.36        731.7
 1710      1008.66       731.64
 1711      1008.95        732.2
 1712      1009.25       732.26
 1713      1009.55       732.32
 1714      1009.84       732.98
 1715      1010.14       733.62
 1716      1010.43       733.42
 1717      1010.73       732.98
 1718      1011.02       733.08
 1719      1011.31       733.18
 1720      1011.61       733.42
 1721       1011.9       734.02
 1722       1012.2       734.64
 1723      1012.49       734.84
 1724      1012.79        735.3
 1725      1013.08       735.62
 1726      1013.37        735.9
 1727      1013.67       736.46
 1728      1013.96       736.96
 1729      1014.25       736.96
 1730      1014.55       736.58
 1731      1014.84       736.18
 1732      1015.13       735.78
 1733      1015.42       735.28
 1734      1015.72       734.56
 1735      1016.01       734.06
 1736       1016.3       733.54
 1737      1016.59       733.04
 1738      1016.89       732.94
 1739      1017.18       732.96
 1740      1017.47       732.98
 1741      1017.76       732.94
 1742      1018.05       732.66
 1743      1018.35        732.3
 1744      1018.64       731.68
 1745      1018.93       731.16
 1746      1019.22       731.36
 1747      1019.51       731.66
 1748       1019.8       731.64
 1749      1020.09       732.08
 1750      1020.38        732.5
 1751      1020.67        732.3
 1752      1020.96        732.4
 1753      1021.25       732.64
 1754      1021.54       732.68
 1755      1021.83       732.54
 1756      1022.12       732.72
 1757      1022.41       733.18
 1758       1022.7       733.74
 1759      1022.99        734.2
 1760      1023.28       734.76
 1761      1023.57       735.32
 1762      1023.86        735.6
 1763      1024.15       735.62
 1764      1024.44        735.5
 1765      1024.73       735.26
 1766      1025.02       734.44
 1767       1025.3       733.28
 1768      1025.59       732.62
 1769      1025.88       732.36
 1770      1026.17       731.88
 1771      1026.46       731.52
 1772      1026.74       731.48
 1773      1027.03       731.92
 1774      1027.32       732.92
 1775      1027.61       734.32
 1776      1027.89       736.14
 1777      1028.18       737.46
 1778      1028.47        737.4
 1779      1028.76       736.82
 1780      1029.04       736.14
 1781      1029.33       735.16
 1782      1029.62       734.28
 1783       1029.9       734.02
 1784      1030.19       734.04
 1785      1030.47       734.38
 1786      1030.76       735.16
 1787      1031.05        736.2
 1788      1031.33       736.82
 1789      1031.62       736.26
 1790       1031.9       735.52
 1791      1032.19       734.84
 1792      1032.47       734.12
 1793      1032.76        733.7
 1794      1033.04        733.9
 1795      1033.33       733.84
 1796      1033.61        733.8
 1797       1033.9       734.02
 1798      1034.18       734.04
 1799      1034.47       734.12
 1800      1034.75       734.54
 1801      1035.04       734.82
 1802      1035.32       734.68
 1803       1035.6       734.86
 1804      1035.89        735.2
 1805      1036.17        735.5
 1806      1036.45        735.4
 1807      1036.74       735.52
 1808      1037.02       735.74
 1809       1037.3       735.98
 1810      1037.59       735.94
 1811      1037.87       735.84
 1812      1038.15       735.46
 1813      1038.44        734.8
 1814      1038.72       733.92
 1815         1039       733.36
 1816      1039.28       733.36
 1817      1039.56       733.86
 1818      1039.85       734.32
 1819      1040.13        734.8
 1820      1040.41       735.58
 1821      1040.69       736.12
 1822      1040.97       735.82
 1823      1041.25       735.82
 1824      1041.54       736.14
 1825      1041.82       735.42
 1826       1042.1       734.26
 1827      1042.38        733.6
 1828      1042.66       732.58
 1829      1042.94       731.12
 1830      1043.22       730.54
 1831       1043.5       730.96
 1832      1043.78       731.34
 1833      1044.06       731.76
 1834      1044.34        732.5
 1835      1044.62        732.9
 1836       1044.9       732.96
 1837      1045.18       733.22
 1838      1045.46       733.74
 1839      1045.74       734.32
 1840      1046.02        734.6
 1841       1046.3       734.46
 1842      1046.58       734.18
 1843      1046.85       734.06
 1844      1047.13        734.3
 1845      1047.41       735.16
 1846      1047.69       736.06
 1847      1047.97       736.26
 1848      1048.25        735.8
 1849      1048.52       735.12
 1850       1048.8        734.2
 1851      1049.08       733.62
 1852      1049.36       733.56
 1853      1049.63       733.94
 1854      1049.91       733.88
 1855      1050.19       733.84
 1856      1050.47       733.88
 1857      1050.74       734.18
 1858      1051.02       734.52
 1859       1051.3       735.32
 1860      1051.57       736.58
 1861      1051.85       737.64
 1862      1052.13       738.46
 1863       1052.4       738.62
 1864      1052.68       737.88
 1865      1052.95        736.5
 1866      1053.23       734.94
 1867      1053.51       733.64
 1868      1053.78       733.02
 1869      1054.06       732.92
 1870      1054.33       732.96
 1871      1054.61       732.96
 1872      1054.88        733.1
 1873      1055.16       733.56
 1874      1055.43        734.1
 1875      1055.71       734.36
 1876      1055.98       734.72
 1877      1056.25       734.84
 1878      1056.53       734.54
 1879       1056.8       733.76
 1880      1057.08       733.06
 1881      1057.35       732.34
 1882      1057.62       731.56
 1883       1057.9       730.96
 1884      1058.17       730.92
 1885      1058.45       730.92
 1886      1058.72        731.1
 1887      1058.99       731.26
 1888      1059.26       730.84
 1889      1059.54       730.44
 1890      1059.81       730.34
 1891      1060.08       730.16
 1892      1060.35       730.52
 1893      1060.63       731.46
 1894       1060.9       732.44
 1895      1061.17       733.36
 1896      1061.44       734.14
 1897      1061.71       734.48
 1898      1061.99       734.56
 1899      1062.26          734
 1900      1062.53       733.36
 1901       1062.8       732.82
 1902      1063.07       732.62
 1903      1063.34       732.54
 1904      1063.61       732.56
 1905      1063.88       732.48
 1906      1064.15       732.64
 1907      1064.42        732.8
 1908       1064.7       732.68
 1909      1064.97       732.72
 1910      1065.24          733
 1911      1065.51       733.16
 1912      1065.78       732.84
 1913      1066.04       732.76
 1914      1066.31       732.78
 1915      1066.58       732.56
 1916      1066.85       732.62
 1917      1067.12       733.04
 1918      1067.39       733.42
 1919      1067.66        733.8
 1920      1067.93        734.3
 1921       1068.2       734.04
 1922      1068.47        733.6
 1923      1068.73       733.84
 1924         1069       734.18
 1925      1069.27       734.32
 1926      1069.54       734.58
 1927      1069.81       734.78
 1928      1070.07       734.52
 1929      1070.34       734.42
 1930      1070.61       734.82
 1931      1070.88       734.94
 1932      1071.14       734.84
 1933      1071.41       734.48
 1934      1071.68       734.12
 1935      1071.94       733.94
 1936      1072.21       734.58
 1937      1072.48        735.3
 1938      1072.74       735.84
 1939      1073.01       735.86
 1940      1073.28       735.04
 1941      1073.54       733.64
 1942      1073.81        732.4
 1943      1074.07       731.68
 1944      1074.34       731.48
 1945       1074.6       731.84
 1946      1074.87       732.32
 1947      1075.13        732.8
 1948       1075.4       733.32
 1949      1075.66        733.3
 1950      1075.93       732.86
 1951      1076.19       732.56
 1952      1076.46       732.14
 1953      1076.72       731.34
 1954      1076.99       731.18
 1955      1077.25          731
 1956      1077.52       730.78
 1957      1077.78       731.22
 1958      1078.04       731.96
 1959      1078.31       732.52
 1960      1078.57       733.06
 1961      1078.83        733.5
 1962       1079.1       733.74
 1963      1079.36       734.16
 1964      1079.62        734.7
 1965      1079.89        735.6
 1966      1080.15       736.52
 1967      1080.41          737
 1968      1080.67          737
 1969      1080.94        736.6
 1970       1081.2       735.84
 1971      1081.46       735.32
 1972      1081.72       734.86
 1973      1081.98       734.28
 1974      1082.24        733.9
 1975      1082.51       733.82
 1976      1082.77       733.34
 1977      1083.03       732.84
 1978      1083.29       732.58
 1979      1083.55        732.2
 1980      1083.81       732.16
 1981      1084.07       732.56
 1982      1084.33        732.9
 1983      1084.59       733.46
 1984      1084.85        734.3
 1985      1085.11       734.84
 1986      1085.37       735.42
 1987      1085.63       736.04
 1988      1085.89       736.08
 1989      1086.15       735.98
 1990      1086.41       736.28
 1991      1086.67        736.3
 1992      1086.93       736.06
 1993      1087.19       735.68
 1994      1087.45       735.12
 1995      1087.71       734.46
 1996      1087.97       734.18
 1997      1088.23       734.14
 1998      1088.48       734.46
 1999      1088.74       735.12
 2000         1089        735.4
 2001      1089.26       735.02
 2002      1089.52       734.34
 2003      1089.77       734.02
 2004      1090.03       733.48
 2005      1090.29       732.88
 2006      1090.55       733.04
 2007       1090.8       733.82
 2008      1091.06       734.24
 2009      1091.32       734.94
 2010      1091.57       735.88
 2011      1091.83       736.12
 2012      1092.09       735.38
 2013      1092.34       734.12
 2014       1092.6       732.84
 2015      1092.86       731.64
 2016      1093.11       730.82
 2017      1093.37       730.84
 2018      1093.62       731.94
 2019      1093.88       732.76
 2020      1094.13       733.18
 2021      1094.39       733.68
 2022      1094.65        734.2
 2023       1094.9        734.4
 2024      1095.16        734.4
 2025      1095.41       734.18
 2026      1095.66       733.48
 2027      1095.92       732.46
 2028      1096.17       731.38
 2029      1096.43       730.48
 2030      1096.68        730.1
 2031      1096.94       730.08
 2032      1097.19       730.72
 2033      1097.44       731.84
 2034       1097.7        733.2
 2035      1097.95       734.24
 2036       1098.2       734.84
 2037      1098.46       734.34
 2038      1098.71       733.38
 2039      1098.96        732.6
 2040      1099.22       731.86
 2041      1099.47       731.84
 2042      1099.72        732.9
 2043      1099.97        733.7
 2044      1100.23       733.78
 2045      1100.48       734.54
 2046      1100.73       734.75
 2047      1100.98      734.433
