scansci Spectrometer Data File
--- Measurement Setting ---
Type: Sample Spectrum
Date: Mon Oct 16 16:07:59 2023
User: (Reserved by scansci)
Serial: (Reserved by scansci)
Channel: No. 11
Integration Time: 1
Average: 10
Boxcar: 2
Electrical Dark: No-corrected
Time Normalize: (Reserved by scansci)
Dual-beam: (Reserved by scansci)
Reference Ch: (Reserved by scansci)
--- Measurement Data ---
Pixel   Wavelength   Intensity
    0        162.5      572.233
    1      162.985      572.375
    2      163.469       572.22
    3      163.954        572.1
    4      164.439       571.84
    5      164.923       571.64
    6      165.408        571.1
    7      165.892       570.54
    8      166.377       570.46
    9      166.861       570.62
   10      167.345       570.64
   11       167.83       571.08
   12      168.314       571.94
   13      168.798       572.06
   14      169.282       571.56
   15      169.766       570.96
   16       170.25       570.36
   17      170.734       569.96
   18      171.218       570.02
   19      171.702       570.74
   20      172.185       571.44
   21      172.669       572.02
   22      173.153       572.56
   23      173.636       572.84
   24       174.12       572.12
   25      174.603       571.32
   26      175.087       570.48
   27       175.57       569.36
   28      176.053       568.58
   29      176.537       568.46
   30       177.02        568.8
   31      177.503       569.32
   32      177.986       569.44
   33      178.469       568.98
   34      178.952       568.86
   35      179.435       569.16
   36      179.918       569.02
   37      180.401       568.96
   38      180.884       569.38
   39      181.366       569.92
   40      181.849       569.76
   41      182.332       569.48
   42      182.814       569.84
   43      183.297       570.36
   44      183.779       570.34
   45      184.262        570.9
   46      184.744       572.04
   47      185.226       572.32
   48      185.708       572.24
   49      186.191        572.5
   50      186.673        572.3
   51      187.155       572.28
   52      187.637       572.94
   53      188.119       573.26
   54        188.6       573.02
   55      189.082       572.96
   56      189.564       573.04
   57      190.046       572.58
   58      190.527       572.16
   59      191.009       572.16
   60      191.491          572
   61      191.972       571.62
   62      192.454       571.56
   63      192.935       571.52
   64      193.416        571.7
   65      193.897       571.96
   66      194.379          572
   67       194.86       571.76
   68      195.341        571.3
   69      195.822        570.3
   70      196.303       569.02
   71      196.784       567.54
   72      197.265       566.34
   73      197.746       565.84
   74      198.226       566.04
   75      198.707       566.44
   76      199.188       567.24
   77      199.668       568.16
   78      200.149       568.94
   79      200.629        569.2
   80       201.11       569.34
   81       201.59       569.28
   82       202.07       569.48
   83       202.55       569.96
   84      203.031       570.54
   85      203.511        570.8
   86      203.991        571.1
   87      204.471       571.06
   88      204.951       570.76
   89      205.431        570.2
   90       205.91          570
   91       206.39       569.78
   92       206.87        569.4
   93      207.349       569.02
   94      207.829       569.16
   95      208.309       569.56
   96      208.788       569.74
   97      209.267       569.62
   98      209.747        569.5
   99      210.226        569.3
  100      210.705       568.94
  101      211.185       569.08
  102      211.664       569.72
  103      212.143       570.36
  104      212.622       570.64
  105      213.101       571.14
  106      213.579       571.58
  107      214.058       572.04
  108      214.537        572.6
  109      215.016        573.3
  110      215.494       573.66
  111      215.973       574.06
  112      216.452       574.38
  113       216.93       573.86
  114      217.408       572.92
  115      217.887       572.14
  116      218.365       571.66
  117      218.843          571
  118      219.321       570.72
  119      219.799       571.26
  120      220.278       571.66
  121      220.755        571.2
  122      221.233       570.74
  123      221.711       570.44
  124      222.189       569.46
  125      222.667       568.32
  126      223.144        567.5
  127      223.622       566.98
  128        224.1       567.06
  129      224.577       567.84
  130      225.055       568.76
  131      225.532        569.6
  132      226.009       570.96
  133      226.486       571.76
  134      226.964        571.9
  135      227.441       571.66
  136      227.918       571.48
  137      228.395       570.96
  138      228.872       570.26
  139      229.349        569.5
  140      229.826       569.52
  141      230.302       569.94
  142      230.779       570.48
  143      231.256       571.32
  144      231.732       572.26
  145      232.209       572.38
  146      232.685       571.34
  147      233.162       569.64
  148      233.638       567.96
  149      234.114        566.4
  150       234.59       565.88
  151      235.066        566.5
  152      235.543       567.52
  153      236.019       568.16
  154      236.495       568.94
  155       236.97       569.72
  156      237.446        570.3
  157      237.922       570.48
  158      238.398       570.84
  159      238.873       570.64
  160      239.349       569.34
  161      239.824       567.84
  162        240.3       566.86
  163      240.775       566.04
  164      241.251          566
  165      241.726       566.58
  166      242.201        567.6
  167      242.676       568.44
  168      243.151        569.4
  169      243.626       570.22
  170      244.101       570.94
  171      244.576       570.92
  172      245.051        570.5
  173      245.526       569.78
  174          246       569.48
  175      246.475       569.16
  176       246.95       569.24
  177      247.424       570.04
  178      247.899        570.7
  179      248.373       570.64
  180      248.847        571.1
  181      249.321       571.12
  182      249.796       570.58
  183       250.27       570.34
  184      250.744        569.9
  185      251.218       568.78
  186      251.692        567.7
  187      252.166       566.36
  188      252.639       565.02
  189      253.113       564.58
  190      253.587       565.08
  191       254.06       566.16
  192      254.534       567.54
  193      255.007       568.94
  194      255.481        570.1
  195      255.954       570.28
  196      256.427       569.48
  197      256.901        568.1
  198      257.374       567.08
  199      257.847       565.86
  200       258.32          565
  201      258.793        565.4
  202      259.266          567
  203      259.739       568.54
  204      260.211       570.24
  205      260.684       571.42
  206      261.157       571.92
  207      261.629       571.52
  208      262.102       570.72
  209      262.574        569.8
  210      263.046       569.64
  211      263.519       570.26
  212      263.991       571.52
  213      264.463       572.84
  214      264.935       574.22
  215      265.407       575.28
  216      265.879       575.14
  217      266.351        574.3
  218      266.823       573.36
  219      267.295       571.88
  220      267.766       570.08
  221      268.238       569.06
  222       268.71       568.74
  223      269.181        568.5
  224      269.653       568.62
  225      270.124        569.6
  226      270.595       570.62
  227      271.066        570.9
  228      271.538       571.18
  229      272.009       571.86
  230       272.48       571.82
  231      272.951       571.26
  232      273.422       570.74
  233      273.892        569.8
  234      274.363       568.64
  235      274.834       567.76
  236      275.305       567.24
  237      275.775       566.86
  238      276.246       566.94
  239      276.716       567.46
  240      277.186        567.7
  241      277.657        567.8
  242      278.127       568.44
  243      278.597       568.94
  244      279.067       568.76
  245      279.537       568.84
  246      280.007       569.06
  247      280.477       568.98
  248      280.947        569.3
  249      281.417       569.54
  250      281.886       569.22
  251      282.356        568.7
  252      282.825       568.46
  253      283.295       568.68
  254      283.764        569.6
  255      284.234        570.3
  256      284.703       570.66
  257      285.172       571.06
  258      285.641       570.42
  259       286.11       568.74
  260      286.579        567.9
  261      287.048       567.36
  262      287.517       566.54
  263      287.986       566.26
  264      288.454       566.68
  265      288.923       567.48
  266      289.392       568.38
  267       289.86       569.04
  268      290.329       569.38
  269      290.797       569.48
  270      291.265          569
  271      291.734       568.38
  272      292.202          568
  273       292.67       567.62
  274      293.138       566.94
  275      293.606       565.96
  276      294.074       565.14
  277      294.541       564.84
  278      295.009       565.18
  279      295.477       566.32
  280      295.944          568
  281      296.412       569.74
  282      296.879       571.04
  283      297.347       571.68
  284      297.814       571.56
  285      298.281       571.16
  286      298.749       570.56
  287      299.216       569.74
  288      299.683       568.96
  289       300.15        568.4
  290      300.616        567.7
  291      301.083          567
  292       301.55       566.98
  293      302.017       567.42
  294      302.483        568.1
  295       302.95        568.8
  296      303.416       569.16
  297      303.883       568.86
  298      304.349       568.68
  299      304.815       568.24
  300      305.281        567.8
  301      305.748        568.2
  302      306.214       568.76
  303       306.68       568.96
  304      307.146       569.36
  305      307.611        569.1
  306      308.077       567.64
  307      308.543       566.26
  308      309.008       565.02
  309      309.474        563.9
  310      309.939          564
  311      310.405       565.42
  312       310.87       566.64
  313      311.335       567.56
  314        311.8       568.68
  315      312.266       569.18
  316      312.731       569.18
  317      313.196       569.58
  318       313.66       569.86
  319      314.125       569.68
  320       314.59        569.9
  321      315.055       569.54
  322      315.519       568.62
  323      315.984       568.52
  324      316.448       568.72
  325      316.913          569
  326      317.377       570.02
  327      317.841        571.2
  328      318.305          572
  329      318.769       572.46
  330      319.233       572.74
  331      319.697        572.9
  332      320.161       572.56
  333      320.625        571.8
  334      321.089       571.16
  335      321.552       570.56
  336      322.016       570.52
  337      322.479       570.96
  338      322.943        571.9
  339      323.406       572.78
  340      323.869       573.56
  341      324.333       573.44
  342      324.796       573.02
  343      325.259       572.06
  344      325.722       570.78
  345      326.185       569.08
  346      326.647       567.92
  347       327.11       567.28
  348      327.573       566.76
  349      328.035       566.34
  350      328.498       566.34
  351       328.96       566.78
  352      329.423       567.88
  353      329.885       569.12
  354      330.347       570.44
  355       330.81       571.42
  356      331.272        571.3
  357      331.734       570.24
  358      332.196       568.76
  359      332.657       567.88
  360      333.119       567.68
  361      333.581       567.88
  362      334.043       568.28
  363      334.504       568.96
  364      334.966       568.94
  365      335.427       568.06
  366      335.888       567.38
  367       336.35       567.06
  368      336.811       567.02
  369      337.272       567.46
  370      337.733       568.28
  371      338.194       568.46
  372      338.655       567.92
  373      339.115       567.84
  374      339.576       568.12
  375      340.037       568.66
  376      340.497       569.86
  377      340.958       571.56
  378      341.418       572.66
  379      341.879       572.96
  380      342.339       572.98
  381      342.799       572.44
  382      343.259       571.44
  383      343.719       570.54
  384      344.179          570
  385      344.639       569.56
  386      345.099       568.84
  387      345.559       567.86
  388      346.018       567.22
  389      346.478        566.9
  390      346.937        566.7
  391      347.397       567.14
  392      347.856       568.26
  393      348.315       568.42
  394      348.774        567.9
  395      349.234       567.64
  396      349.693       567.86
  397      350.152        568.5
  398       350.61        570.1
  399      351.069       572.06
  400      351.528       573.48
  401      351.987       574.04
  402      352.445        573.8
  403      352.904        572.7
  404      353.362        570.9
  405       353.82        569.4
  406      354.279       568.64
  407      354.737       567.86
  408      355.195        567.2
  409      355.653       567.84
  410      356.111       568.66
  411      356.569       569.28
  412      357.027       569.94
  413      357.484        570.4
  414      357.942       570.48
  415      358.399       570.56
  416      358.857       570.54
  417      359.314        570.6
  418      359.772       571.06
  419      360.229       571.18
  420      360.686       570.92
  421      361.143       570.64
  422        361.6       570.44
  423      362.057        570.5
  424      362.514       570.64
  425      362.971       570.82
  426      363.427       570.96
  427      363.884       570.96
  428       364.34       570.96
  429      364.797       571.14
  430      365.253       571.52
  431      365.709       571.94
  432      366.166       572.58
  433      366.622       573.08
  434      367.078        573.2
  435      367.534        572.9
  436       367.99       572.56
  437      368.445        572.2
  438      368.901       571.76
  439      369.357       571.42
  440      369.812       571.56
  441      370.268       571.68
  442      370.723       571.52
  443      371.179       571.16
  444      371.634       570.62
  445      372.089       570.04
  446      372.544       569.46
  447      372.999        569.4
  448      373.454       569.66
  449      373.909        570.3
  450      374.364       570.56
  451      374.818       570.68
  452      375.273       570.86
  453      375.727       570.88
  454      376.182       570.52
  455      376.636       570.26
  456       377.09       569.88
  457      377.545       568.92
  458      377.999       568.16
  459      378.453       567.56
  460      378.907       567.22
  461      379.361        567.6
  462      379.814       568.36
  463      380.268       569.16
  464      380.722       570.08
  465      381.175       571.02
  466      381.629       571.62
  467      382.082       572.28
  468      382.535       572.98
  469      382.989       573.68
  470      383.442       573.88
  471      383.895       573.68
  472      384.348       573.22
  473      384.801       572.36
  474      385.253       571.26
  475      385.706        570.1
  476      386.159       569.04
  477      386.611       568.22
  478      387.064       567.46
  479      387.516       567.32
  480      387.968       567.98
  481      388.421       568.34
  482      388.873       568.56
  483      389.325       568.82
  484      389.777       568.34
  485      390.229        567.8
  486      390.681       568.36
  487      391.132        568.9
  488      391.584       569.36
  489      392.035       569.86
  490      392.487       569.94
  491      392.938       569.76
  492       393.39        569.8
  493      393.841       570.18
  494      394.292       571.12
  495      394.743        572.3
  496      395.194       572.88
  497      395.645       573.08
  498      396.096       572.88
  499      396.546          572
  500      396.997       571.08
  501      397.448       571.08
  502      397.898       571.92
  503      398.349       573.02
  504      398.799       574.54
  505      399.249       575.32
  506      399.699       575.18
  507      400.149        574.2
  508      400.599        572.7
  509      401.049       571.18
  510      401.499       570.36
  511      401.949        569.8
  512      402.398       569.46
  513      402.848       569.86
  514      403.297       570.44
  515      403.747       570.74
  516      404.196       571.12
  517      404.645        571.6
  518      405.094       571.74
  519      405.543       571.76
  520      405.992       571.84
  521      406.441       571.46
  522       406.89       570.76
  523      407.339        570.4
  524      407.787       570.04
  525      408.236        569.9
  526      408.684       570.68
  527      409.132       571.92
  528      409.581       573.08
  529      410.029          574
  530      410.477       574.04
  531      410.925       573.32
  532      411.373       572.66
  533      411.821       572.06
  534      412.269       571.62
  535      412.716          572
  536      413.164       572.42
  537      413.611       572.16
  538      414.059       571.38
  539      414.506       570.56
  540      414.953       569.38
  541        415.4       568.18
  542      415.847       567.72
  543      416.294       567.44
  544      416.741        567.2
  545      417.188        566.9
  546      417.635       566.84
  547      418.081       566.62
  548      418.528        566.3
  549      418.974       566.46
  550      419.421       567.32
  551      419.867       567.72
  552      420.313       568.46
  553      420.759       569.98
  554      421.205       570.72
  555      421.651       570.82
  556      422.097       570.88
  557      422.543       570.18
  558      422.989        568.7
  559      423.434       567.86
  560       423.88       567.78
  561      424.325       568.62
  562       424.77        570.4
  563      425.216       574.02
  564      425.661       579.52
  565      426.106       586.12
  566      426.551       593.18
  567      426.996       599.96
  568       427.44       604.68
  569      427.885       605.64
  570       428.33       603.72
  571      428.774       600.14
  572      429.219       596.26
  573      429.663       594.24
  574      430.107       596.46
  575      430.551       602.72
  576      430.996       610.92
  577       431.44       619.18
  578      431.883       625.36
  579      432.327       626.62
  580      432.771       622.48
  581      433.215       615.16
  582      433.658       606.02
  583      434.102       596.78
  584      434.545        590.2
  585      434.988       587.26
  586      435.431       587.14
  587      435.875       589.44
  588      436.318       593.08
  589      436.761        596.2
  590      437.203        597.7
  591      437.646       598.04
  592      438.089       597.14
  593      438.531       594.64
  594      438.974       591.04
  595      439.416       587.56
  596      439.859       584.22
  597      440.301        580.6
  598      440.743        577.8
  599      441.185       575.88
  600      441.627       574.28
  601      442.069       572.84
  602       442.51       572.44
  603      442.952       572.22
  604      443.394       573.38
  605      443.835       576.06
  606      444.277       579.74
  607      444.718       584.04
  608      445.159       588.88
  609        445.6        593.3
  610      446.041        596.8
  611      446.482       598.68
  612      446.923       598.22
  613      447.364        595.9
  614      447.804       592.68
  615      448.245        589.2
  616      448.685       586.74
  617      449.126       585.74
  618      449.566       585.84
  619      450.006       586.14
  620      450.447       586.08
  621      450.887       584.68
  622      451.326        582.3
  623      451.766       579.64
  624      452.206        576.7
  625      452.646       574.04
  626      453.085       572.54
  627      453.525       571.84
  628      453.964       571.72
  629      454.403       571.74
  630      454.843       571.48
  631      455.282       571.06
  632      455.721       570.68
  633       456.16       570.04
  634      456.599       569.36
  635      457.037       568.96
  636      457.476       568.68
  637      457.915       568.22
  638      458.353        568.2
  639      458.791        568.8
  640       459.23       569.38
  641      459.668       569.82
  642      460.106        570.4
  643      460.544       571.36
  644      460.982       572.24
  645       461.42       572.82
  646      461.857          573
  647      462.295       573.02
  648      462.733       572.32
  649       463.17       571.58
  650      463.607       571.24
  651      464.045       571.54
  652      464.482       571.94
  653      464.919        572.5
  654      465.356       572.58
  655      465.793       571.74
  656       466.23        570.5
  657      466.666        569.3
  658      467.103       567.86
  659      467.539       566.52
  660      467.976       566.28
  661      468.412        566.7
  662      468.848        567.3
  663      469.284       568.16
  664       469.72       569.08
  665      470.156       569.78
  666      470.592       569.62
  667      471.028       568.84
  668      471.464       567.88
  669      471.899       567.42
  670      472.335        567.4
  671       472.77        567.5
  672      473.205       567.84
  673      473.641          568
  674      474.076       567.82
  675      474.511       567.38
  676      474.946       567.02
  677       475.38       566.86
  678      475.815       567.26
  679       476.25       567.92
  680      476.684        568.9
  681      477.119       570.12
  682      477.553       571.12
  683      477.987        571.7
  684      478.421       571.68
  685      478.856       570.72
  686      479.289        569.9
  687      479.723       569.94
  688      480.157       570.44
  689      480.591       571.08
  690      481.024       571.84
  691      481.458        572.1
  692      481.891        571.4
  693      482.324       570.28
  694      482.758       569.18
  695      483.191       568.32
  696      483.624       567.78
  697      484.057       567.76
  698      484.489          568
  699      484.922       568.18
  700      485.355       568.56
  701      485.787        568.9
  702       486.22        568.9
  703      486.652       568.42
  704      487.084       567.96
  705      487.516        567.7
  706      487.948       567.44
  707       488.38       567.22
  708      488.812       567.26
  709      489.244       567.48
  710      489.676       567.44
  711      490.107       567.24
  712      490.539       567.38
  713       490.97       567.86
  714      491.401       568.44
  715      491.832        568.6
  716      492.263       568.62
  717      492.694       568.68
  718      493.125        568.9
  719      493.556       568.42
  720      493.987       567.98
  721      494.417        567.9
  722      494.848       567.72
  723      495.278        567.5
  724      495.708       568.08
  725      496.139       568.66
  726      496.569       569.44
  727      496.999       570.38
  728      497.429       570.98
  729      497.858       571.36
  730      498.288        571.8
  731      498.718       571.46
  732      499.147       570.62
  733      499.577       569.66
  734      500.006       568.86
  735      500.435       568.92
  736      500.864       569.78
  737      501.293       570.08
  738      501.722       570.14
  739      502.151       569.96
  740       502.58        568.9
  741      503.008       567.18
  742      503.437       566.34
  743      503.865        566.2
  744      504.293       566.64
  745      504.722       567.22
  746       505.15       567.82
  747      505.578       568.48
  748      506.006       569.18
  749      506.434       569.34
  750      506.861       569.58
  751      507.289       569.72
  752      507.716       569.66
  753      508.144       569.52
  754      508.571       569.66
  755      508.998       569.86
  756      509.425        570.1
  757      509.852        570.1
  758      510.279       569.58
  759      510.706       568.96
  760      511.133       568.66
  761       511.56       568.74
  762      511.986       569.78
  763      512.412        571.2
  764      512.839       571.94
  765      513.265       571.74
  766      513.691       571.28
  767      514.117       570.56
  768      514.543       569.66
  769      514.969        569.6
  770      515.395       570.14
  771       515.82        570.4
  772      516.246        570.3
  773      516.671        570.2
  774      517.096       569.48
  775      517.522       568.82
  776      517.947       568.84
  777      518.372       568.88
  778      518.797       568.84
  779      519.222       568.62
  780      519.646       568.32
  781      520.071       567.56
  782      520.495       566.98
  783       520.92       567.06
  784      521.344       567.18
  785      521.768       567.24
  786      522.192          568
  787      522.616       568.68
  788       523.04       569.38
  789      523.464       571.04
  790      523.888       572.76
  791      524.311       573.82
  792      524.735       574.58
  793      525.158       574.68
  794      525.581       574.12
  795      526.005       573.24
  796      526.428       572.52
  797      526.851          572
  798      527.274       571.58
  799      527.696       570.98
  800      528.119       571.12
  801      528.542       571.32
  802      528.964        571.6
  803      529.386       571.88
  804      529.809       572.12
  805      530.231       571.62
  806      530.653       571.36
  807      531.075       571.38
  808      531.497       571.56
  809      531.918       571.66
  810       532.34       571.56
  811      532.761       571.58
  812      533.183        571.3
  813      533.604       570.32
  814      534.025       569.42
  815      534.447        568.9
  816      534.868       568.18
  817      535.289       567.24
  818      535.709       566.46
  819       536.13       565.98
  820      536.551       565.68
  821      536.971       565.34
  822      537.392        565.6
  823      537.812       566.72
  824      538.232       568.04
  825      538.652       569.28
  826      539.072       570.48
  827      539.492       570.72
  828      539.912       570.18
  829      540.331       569.88
  830      540.751       569.66
  831       541.17       568.92
  832       541.59       568.46
  833      542.009       568.04
  834      542.428        567.6
  835      542.847        567.3
  836      543.266        567.2
  837      543.685       567.14
  838      544.104       567.18
  839      544.522        567.1
  840      544.941       567.22
  841      545.359       567.52
  842      545.778       568.16
  843      546.196       569.12
  844      546.614        569.9
  845      547.032       570.28
  846       547.45        570.9
  847      547.867        571.7
  848      548.285       572.24
  849      548.703       572.52
  850       549.12       572.52
  851      549.538        572.4
  852      549.955       572.08
  853      550.372       571.72
  854      550.789       571.78
  855      551.206       572.02
  856      551.623       571.88
  857      552.039       571.54
  858      552.456       572.04
  859      552.873       572.86
  860      553.289        573.9
  861      553.705       575.92
  862      554.121       579.96
  863      554.537       587.42
  864      554.953       599.56
  865      555.369        616.3
  866      555.785       636.04
  867      556.201        655.7
  868      556.616          671
  869      557.032        678.4
  870      557.447       676.82
  871      557.862       667.14
  872      558.277       652.14
  873      558.692       634.18
  874      559.107       616.68
  875      559.522       602.66
  876      559.937       592.82
  877      560.351        585.9
  878      560.766        581.7
  879       561.18       579.38
  880      561.595       577.46
  881      562.009       575.44
  882      562.423       573.88
  883      562.837       572.92
  884       563.25       572.78
  885      563.664       573.12
  886      564.078       573.68
  887      564.491        574.3
  888      564.905        575.1
  889      565.318       575.42
  890      565.731       575.16
  891      566.144       574.54
  892      566.557       573.56
  893       566.97       572.48
  894      567.383        571.2
  895      567.795       570.08
  896      568.208       569.86
  897       568.62       569.86
  898      569.033       569.28
  899      569.445       569.02
  900      569.857        568.8
  901      570.269       568.18
  902      570.681        567.8
  903      571.093       567.84
  904      571.504       567.86
  905      571.916       567.84
  906      572.327       568.16
  907      572.739       568.34
  908       573.15        568.8
  909      573.561       569.44
  910      573.972       570.36
  911      574.383       570.94
  912      574.794       571.54
  913      575.204       571.68
  914      575.615        571.1
  915      576.025       570.42
  916      576.436        569.9
  917      576.846       569.58
  918      577.256        569.5
  919      577.666       569.72
  920      578.076       569.82
  921      578.486       569.92
  922      578.896       570.14
  923      579.305       569.84
  924      579.715        569.6
  925      580.124       569.84
  926      580.533       570.36
  927      580.942        571.3
  928      581.351        572.8
  929       581.76        574.5
  930      582.169        575.9
  931      582.578        576.5
  932      582.986        576.4
  933      583.395       575.76
  934      583.803       575.02
  935      584.212        576.2
  936       584.62       581.84
  937      585.028       592.56
  938      585.436        608.9
  939      585.843        629.6
  940      586.251       649.88
  941      586.659        666.2
  942      587.066       676.64
  943      587.474       678.28
  944      587.881       670.26
  945      588.288       655.98
  946      588.695       638.22
  947      589.102        619.4
  948      589.509       602.88
  949      589.915        590.8
  950      590.322       583.38
  951      590.728        579.2
  952      591.135       576.58
  953      591.541          575
  954      591.947       573.92
  955      592.353       572.64
  956      592.759       571.24
  957      593.165       570.24
  958      593.571       569.64
  959      593.976        569.3
  960      594.382       569.62
  961      594.787       570.42
  962      595.192       570.86
  963      595.597       570.54
  964      596.002       570.18
  965      596.407       569.56
  966      596.812        568.8
  967      597.217       568.66
  968      597.621       569.78
  969      598.026       571.16
  970       598.43       572.42
  971      598.834       573.64
  972      599.238       574.62
  973      599.642          575
  974      600.046       575.06
  975       600.45        574.9
  976      600.854       574.28
  977      601.257       573.26
  978      601.661       572.36
  979      602.064       571.42
  980      602.467       570.58
  981       602.87       570.64
  982      603.273        571.2
  983      603.676       571.82
  984      604.079       572.98
  985      604.481       573.78
  986      604.884       573.36
  987      605.286        572.9
  988      605.689        572.2
  989      606.091       571.04
  990      606.493          570
  991      606.895       569.54
  992      607.297        569.1
  993      607.698       568.88
  994        608.1       568.96
  995      608.501       569.52
  996      608.903       570.52
  997      609.304       571.08
  998      609.705        571.4
  999      610.106       571.58
 1000      610.507       571.42
 1001      610.908       571.04
 1002      611.308       571.32
 1003      611.709       571.22
 1004      612.109       570.66
 1005       612.51       570.46
 1006       612.91       570.72
 1007       613.31       570.36
 1008       613.71       569.98
 1009       614.11       569.84
 1010       614.51        570.3
 1011      614.909       571.08
 1012      615.309       572.12
 1013      615.708       573.08
 1014      616.108       573.96
 1015      616.507       573.88
 1016      616.906       572.66
 1017      617.305        571.3
 1018      617.704       570.44
 1019      618.102       569.54
 1020      618.501       568.98
 1021      618.899       568.78
 1022      619.298       568.88
 1023      619.696       568.94
 1024      620.094          569
 1025      620.492       569.32
 1026       620.89       570.04
 1027      621.288       570.14
 1028      621.686       569.86
 1029      622.083       569.56
 1030       622.48       569.06
 1031      622.878       568.54
 1032      623.275        567.9
 1033      623.672       567.16
 1034      624.069       566.72
 1035      624.466       566.64
 1036      624.863        566.8
 1037      625.259       567.58
 1038      625.656       568.86
 1039      626.052       570.38
 1040      626.448       571.54
 1041      626.844       572.52
 1042      627.241       573.62
 1043      627.636        574.1
 1044      628.032       574.08
 1045      628.428       573.98
 1046      628.823       572.94
 1047      629.219       571.54
 1048      629.614       570.96
 1049      630.009       570.94
 1050      630.404       570.28
 1051      630.799       569.28
 1052      631.194       568.34
 1053      631.589        566.9
 1054      631.984       565.64
 1055      632.378        565.3
 1056      632.772       565.92
 1057      633.167       566.86
 1058      633.561        568.3
 1059      633.955       569.28
 1060      634.349       569.84
 1061      634.743        570.2
 1062      635.136        570.6
 1063       635.53       570.56
 1064      635.923       570.22
 1065      636.316       569.74
 1066       636.71       569.08
 1067      637.103       568.66
 1068      637.496       568.42
 1069      637.888        568.2
 1070      638.281       568.24
 1071      638.674       568.38
 1072      639.066        568.4
 1073      639.459       568.58
 1074      639.851       569.18
 1075      640.243        569.7
 1076      640.635       570.48
 1077      641.027          571
 1078      641.419        570.7
 1079       641.81        569.9
 1080      642.202       569.54
 1081      642.593       569.28
 1082      642.984          569
 1083      643.375        569.6
 1084      643.766        570.5
 1085      644.157       570.38
 1086      644.548        570.1
 1087      644.939       569.82
 1088      645.329       569.62
 1089       645.72       569.74
 1090       646.11        570.4
 1091        646.5       570.42
 1092       646.89        570.4
 1093       647.28       570.62
 1094       647.67       570.82
 1095       648.06       571.32
 1096      648.449       572.28
 1097      648.839       572.98
 1098      649.228       573.34
 1099      649.617        573.4
 1100      650.007       573.24
 1101      650.396       573.18
 1102      650.784        573.1
 1103      651.173       572.34
 1104      651.562       571.08
 1105       651.95       569.62
 1106      652.339        567.9
 1107      652.727       566.06
 1108      653.115       564.74
 1109      653.503       564.04
 1110      653.891        563.3
 1111      654.279       563.02
 1112      654.666       563.68
 1113      655.054       564.26
 1114      655.441       564.48
 1115      655.828       564.84
 1116      656.216       564.82
 1117      656.603        564.1
 1118      656.989       563.88
 1119      657.376       564.82
 1120      657.763          566
 1121      658.149       567.26
 1122      658.536       568.42
 1123      658.922       568.56
 1124      659.308       567.42
 1125      659.694       566.52
 1126       660.08       565.92
 1127      660.466        565.5
 1128      660.852       565.26
 1129      661.237       564.98
 1130      661.623       564.92
 1131      662.008       565.12
 1132      662.393        565.4
 1133      662.778          566
 1134      663.163          567
 1135      663.548       567.64
 1136      663.933        567.8
 1137      664.317       567.36
 1138      664.702       566.96
 1139      665.086       566.36
 1140       665.47        565.7
 1141      665.854       565.56
 1142      666.238        565.8
 1143      666.622       565.86
 1144      667.006       565.64
 1145      667.389       565.52
 1146      667.773       565.52
 1147      668.156        565.9
 1148      668.539       566.28
 1149      668.923        566.8
 1150      669.305       567.44
 1151      669.688       567.34
 1152      670.071       566.84
 1153      670.454       566.92
 1154      670.836       567.06
 1155      671.218       566.62
 1156      671.601       566.34
 1157      671.983        566.5
 1158      672.365        566.6
 1159      672.747       566.78
 1160      673.128       567.22
 1161       673.51       568.08
 1162      673.891       568.92
 1163      674.273       569.48
 1164      674.654       570.16
 1165      675.035       570.52
 1166      675.416       570.68
 1167      675.797        570.4
 1168      676.177       569.86
 1169      676.558       569.64
 1170      676.938       569.58
 1171      677.319       568.34
 1172      677.699       566.66
 1173      678.079        565.8
 1174      678.459        564.9
 1175      678.839       563.98
 1176      679.219       564.02
 1177      679.598       564.56
 1178      679.978        564.4
 1179      680.357        564.1
 1180      680.736       564.18
 1181      681.115        564.7
 1182      681.494       565.28
 1183      681.873       565.58
 1184      682.252       565.52
 1185       682.63        565.4
 1186      683.009        565.2
 1187      683.387       565.36
 1188      683.765       565.92
 1189      684.143       566.72
 1190      684.521       567.46
 1191      684.899       567.84
 1192      685.277       568.04
 1193      685.654       568.22
 1194      686.032       568.58
 1195      686.409        568.7
 1196      686.786       568.68
 1197      687.163       568.56
 1198       687.54       568.76
 1199      687.917       568.86
 1200      688.294       569.22
 1201       688.67       570.08
 1202      689.046       571.16
 1203      689.423       571.82
 1204      689.799       572.18
 1205      690.175        572.3
 1206      690.551        572.3
 1207      690.927          572
 1208      691.302       571.16
 1209      691.678        570.3
 1210      692.053        569.2
 1211      692.428       567.66
 1212      692.804       566.62
 1213      693.179       566.48
 1214      693.553       566.82
 1215      693.928       567.68
 1216      694.303       568.48
 1217      694.677       568.78
 1218      695.052        569.3
 1219      695.426       569.64
 1220        695.8        569.3
 1221      696.174       569.46
 1222      696.548       570.36
 1223      696.921       570.84
 1224      697.295          571
 1225      697.669       570.76
 1226      698.042       569.76
 1227      698.415       568.68
 1228      698.788        568.5
 1229      699.161        568.4
 1230      699.534       568.54
 1231      699.907       569.08
 1232      700.279        569.3
 1233      700.652       568.68
 1234      701.024       568.58
 1235      701.396       569.24
 1236      701.768       569.68
 1237       702.14        569.8
 1238      702.512       569.86
 1239      702.883       569.48
 1240      703.255       569.22
 1241      703.626       569.48
 1242      703.998        569.8
 1243      704.369       569.94
 1244       704.74       570.26
 1245      705.111       570.44
 1246      705.481       570.68
 1247      705.852       571.28
 1248      706.222          572
 1249      706.593       572.54
 1250      706.963       572.64
 1251      707.333       572.74
 1252      707.703       572.48
 1253      708.073       571.54
 1254      708.442        571.1
 1255      708.812       571.32
 1256      709.181       570.84
 1257      709.551       570.04
 1258       709.92        570.3
 1259      710.289       570.46
 1260      710.658       570.14
 1261      711.027        569.4
 1262      711.395       568.04
 1263      711.764       566.28
 1264      712.132       564.46
 1265        712.5        562.9
 1266      712.869       562.66
 1267      713.236       563.82
 1268      713.604       564.98
 1269      713.972       566.28
 1270       714.34       567.86
 1271      714.707        568.7
 1272      715.074       568.94
 1273      715.442       568.92
 1274      715.809       568.54
 1275      716.176        567.4
 1276      716.542       566.72
 1277      716.909        566.2
 1278      717.276        565.7
 1279      717.642        565.3
 1280      718.008       565.78
 1281      718.374       566.14
 1282       718.74       566.54
 1283      719.106       567.38
 1284      719.472       568.36
 1285      719.838        568.8
 1286      720.203       569.14
 1287      720.568       569.32
 1288      720.934       568.96
 1289      721.299        568.2
 1290      721.664       567.74
 1291      722.029        567.8
 1292      722.393       567.82
 1293      722.758        567.9
 1294      723.122       568.18
 1295      723.486       567.72
 1296      723.851       566.58
 1297      724.215       566.24
 1298      724.578        566.7
 1299      724.942       567.26
 1300      725.306       568.14
 1301      725.669       568.64
 1302      726.033       568.46
 1303      726.396       567.96
 1304      726.759       567.46
 1305      727.122       567.42
 1306      727.485       567.56
 1307      727.847       567.78
 1308       728.21       567.72
 1309      728.572       567.96
 1310      728.935       568.46
 1311      729.297        569.1
 1312      729.659       569.06
 1313      730.021       568.44
 1314      730.382       566.98
 1315      730.744       565.36
 1316      731.105       564.66
 1317      731.467       564.56
 1318      731.828       565.04
 1319      732.189       565.92
 1320       732.55        566.6
 1321      732.911       566.54
 1322      733.271       566.62
 1323      733.632       567.08
 1324      733.992       567.64
 1325      734.352       567.86
 1326      734.713        568.2
 1327      735.072        568.2
 1328      735.432       567.92
 1329      735.792       567.76
 1330      736.152       567.64
 1331      736.511       567.24
 1332       736.87        567.3
 1333      737.229       567.76
 1334      737.589       567.84
 1335      737.947       567.64
 1336      738.306        567.9
 1337      738.665       568.12
 1338      739.023       568.08
 1339      739.382       568.22
 1340       739.74        568.2
 1341      740.098       568.02
 1342      740.456       568.24
 1343      740.814       568.66
 1344      741.171       569.36
 1345      741.529        570.6
 1346      741.886       571.86
 1347      742.244       572.28
 1348      742.601       572.04
 1349      742.958        571.1
 1350      743.314        570.4
 1351      743.671       570.02
 1352      744.028       569.88
 1353      744.384       570.44
 1354       744.74       571.38
 1355      745.097       571.76
 1356      745.453       571.86
 1357      745.809        572.2
 1358      746.164        571.8
 1359       746.52       571.58
 1360      746.875       571.58
 1361      747.231       570.76
 1362      747.586       569.76
 1363      747.941       569.24
 1364      748.296       568.56
 1365      748.651       568.06
 1366      749.005       568.58
 1367       749.36        569.4
 1368      749.714       570.16
 1369      750.069          571
 1370      750.423          572
 1371      750.777       572.92
 1372       751.13          574
 1373      751.484       574.84
 1374      751.838       575.36
 1375      752.191       575.04
 1376      752.544       574.24
 1377      752.897        573.6
 1378       753.25       573.46
 1379      753.603          574
 1380      753.956       575.48
 1381      754.309        577.4
 1382      754.661       580.22
 1383      755.013       587.42
 1384      755.365       601.98
 1385      755.717        625.1
 1386      756.069       659.22
 1387      756.421       706.16
 1388      756.773       765.02
 1389      757.124        831.6
 1390      757.476       899.54
 1391      757.827       960.38
 1392      758.178      1004.78
 1393      758.529      1025.92
 1394      758.879      1022.16
 1395       759.23       996.24
 1396      759.581       953.84
 1397      759.931       901.86
 1398      760.281       846.68
 1399      760.631       792.76
 1400      760.981       743.96
 1401      761.331        701.9
 1402      761.681       667.26
 1403       762.03       639.42
 1404      762.379       618.38
 1405      762.729        603.2
 1406      763.078       592.44
 1407      763.427       584.94
 1408      763.776        580.3
 1409      764.124       577.04
 1410      764.473       575.34
 1411      764.821       575.96
 1412      765.169       579.02
 1413      765.517       584.76
 1414      765.865       593.36
 1415      766.213        603.9
 1416      766.561       615.26
 1417      766.909       625.84
 1418      767.256       633.62
 1419      767.603       637.94
 1420       767.95       638.88
 1421      768.297       636.48
 1422      768.644       631.54
 1423      768.991       624.46
 1424      769.337       615.94
 1425      769.684       607.04
 1426       770.03       598.06
 1427      770.376       589.96
 1428      770.722       583.56
 1429      771.068       578.78
 1430      771.414       575.82
 1431      771.759       574.22
 1432      772.105        573.2
 1433       772.45        572.9
 1434      772.795        572.9
 1435       773.14       572.24
 1436      773.485        571.7
 1437       773.83       571.74
 1438      774.174        571.8
 1439      774.519        571.7
 1440      774.863        571.8
 1441      775.207       571.56
 1442      775.551       570.86
 1443      775.895       570.82
 1444      776.239       571.14
 1445      776.582       570.56
 1446      776.926       569.76
 1447      777.269       569.26
 1448      777.612       568.18
 1449      777.955        567.4
 1450      778.298        567.5
 1451      778.641       567.78
 1452      778.983       567.72
 1453      779.326       567.76
 1454      779.668        567.9
 1455       780.01       567.98
 1456      780.352       568.66
 1457      780.694        569.8
 1458      781.036       571.14
 1459      781.377       572.48
 1460      781.719       573.98
 1461       782.06        576.4
 1462      782.401       580.04
 1463      782.742        584.7
 1464      783.083       589.94
 1465      783.424        595.5
 1466      783.764        599.9
 1467      784.105       602.12
 1468      784.445       602.06
 1469      784.785       600.06
 1470      785.125       596.44
 1471      785.465       591.46
 1472      785.805       586.38
 1473      786.144       581.66
 1474      786.484       577.34
 1475      786.823       574.16
 1476      787.162       572.84
 1477      787.501       572.34
 1478       787.84       572.18
 1479      788.178       572.32
 1480      788.517       572.18
 1481      788.855       571.28
 1482      789.194       570.96
 1483      789.532       571.36
 1484       789.87        571.6
 1485      790.208       571.44
 1486      790.545       571.42
 1487      790.883       570.78
 1488       791.22       569.28
 1489      791.557          568
 1490      791.894       567.36
 1491      792.231       567.42
 1492      792.568       567.78
 1493      792.905       568.58
 1494      793.241       569.56
 1495      793.578       570.12
 1496      793.914       570.04
 1497       794.25       570.18
 1498      794.586       570.34
 1499      794.922       570.78
 1500      795.257       572.06
 1501      795.593        573.2
 1502      795.928        573.7
 1503      796.263       574.14
 1504      796.598        573.8
 1505      796.933       572.32
 1506      797.268        570.5
 1507      797.603        568.7
 1508      797.937       566.86
 1509      798.271        565.9
 1510      798.606          566
 1511       798.94       567.08
 1512      799.274       568.64
 1513      799.607       569.72
 1514      799.941       569.84
 1515      800.274       569.48
 1516      800.608       568.88
 1517      800.941       568.38
 1518      801.274       568.82
 1519      801.607        570.2
 1520      801.939        571.8
 1521      802.272       573.86
 1522      802.604       576.62
 1523      802.936       579.76
 1524      803.269       582.34
 1525      803.601       584.72
 1526      803.932       586.48
 1527      804.264       586.64
 1528      804.596       585.24
 1529      804.927       583.56
 1530      805.258       581.46
 1531      805.589       579.44
 1532       805.92        578.6
 1533      806.251        579.6
 1534      806.582       583.84
 1535      806.912       593.16
 1536      807.242          609
 1537      807.573          633
 1538      807.903       664.14
 1539      808.232       698.28
 1540      808.562       730.56
 1541      808.892       756.02
 1542      809.221       770.54
 1543      809.551        772.4
 1544       809.88       761.86
 1545      810.209       741.66
 1546      810.538        715.8
 1547      810.866       686.92
 1548      811.195       658.88
 1549      811.523       635.06
 1550      811.851       616.36
 1551       812.18       602.36
 1552      812.507       592.74
 1553      812.835       586.08
 1554      813.163       580.98
 1555       813.49       577.24
 1556      813.818        574.4
 1557      814.145        572.1
 1558      814.472       570.68
 1559      814.799       571.26
 1560      815.126       574.02
 1561      815.452       578.94
 1562      815.779       585.84
 1563      816.105       593.62
 1564      816.431       600.88
 1565      816.757        606.2
 1566      817.083       608.58
 1567      817.409       608.06
 1568      817.734        604.9
 1569       818.06       599.64
 1570      818.385        593.5
 1571       818.71       587.26
 1572      819.035       581.66
 1573       819.36       577.04
 1574      819.685       573.86
 1575      820.009        571.6
 1576      820.333        570.3
 1577      820.658       569.84
 1578      820.982       569.94
 1579      821.305       570.14
 1580      821.629       570.94
 1581      821.953       572.18
 1582      822.276       573.96
 1583        822.6       577.18
 1584      822.923       581.74
 1585      823.246        587.1
 1586      823.569       592.66
 1587      823.891       597.42
 1588      824.214       601.16
 1589      824.536       603.54
 1590      824.858        604.2
 1591       825.18       603.72
 1592      825.502       602.98
 1593      825.824       602.82
 1594      826.146       604.16
 1595      826.467        607.8
 1596      826.789       613.98
 1597       827.11       620.38
 1598      827.431       624.58
 1599      827.752       625.96
 1600      828.072        623.9
 1601      828.393       618.02
 1602      828.713       610.18
 1603      829.034       601.52
 1604      829.354        592.5
 1605      829.674       584.68
 1606      829.993       578.44
 1607      830.313       573.76
 1608      830.633       570.92
 1609      830.952       569.74
 1610      831.271       568.72
 1611       831.59       567.96
 1612      831.909          568
 1613      832.228       568.48
 1614      832.546       568.96
 1615      832.865       569.66
 1616      833.183       569.98
 1617      833.501       569.72
 1618      833.819       569.16
 1619      834.137       568.52
 1620      834.455       567.88
 1621      834.772       567.76
 1622      835.089       567.76
 1623      835.407        567.9
 1624      835.724       568.18
 1625       836.04       568.42
 1626      836.357       568.82
 1627      836.674        569.6
 1628       836.99        570.1
 1629      837.306          570
 1630      837.623        570.3
 1631      837.939       570.76
 1632      838.254       570.98
 1633       838.57        570.6
 1634      838.886       570.44
 1635      839.201       570.02
 1636      839.516       569.08
 1637      839.831        567.9
 1638      840.146       567.44
 1639      840.461       567.24
 1640      840.775       567.48
 1641       841.09       568.14
 1642      841.404       568.76
 1643      841.718       569.14
 1644      842.032       569.22
 1645      842.346       568.66
 1646      842.659       568.04
 1647      842.973       567.68
 1648      843.286          568
 1649      843.599       568.72
 1650      843.912       569.24
 1651      844.225       569.16
 1652      844.538          569
 1653      844.851        568.6
 1654      845.163       567.88
 1655      845.475       567.78
 1656      845.787       567.98
 1657      846.099       567.48
 1658      846.411       566.84
 1659      846.723       566.38
 1660      847.034       565.56
 1661      847.345          565
 1662      847.657       565.32
 1663      847.968       565.78
 1664      848.278        566.4
 1665      848.589       566.78
 1666        848.9       566.96
 1667       849.21       566.72
 1668       849.52       566.26
 1669       849.83       565.82
 1670       850.14        566.1
 1671       850.45       566.28
 1672      850.759        566.6
 1673      851.069       567.02
 1674      851.378       567.04
 1675      851.687       566.36
 1676      851.996       565.98
 1677      852.305       565.82
 1678      852.614       565.56
 1679      852.922       565.72
 1680       853.23       566.12
 1681      853.539       566.24
 1682      853.847       566.26
 1683      854.154       566.52
 1684      854.462       566.76
 1685       854.77        566.9
 1686      855.077       567.02
 1687      855.384       567.14
 1688      855.691       566.82
 1689      855.998       566.12
 1690      856.305       565.58
 1691      856.612       565.32
 1692      856.918       565.42
 1693      857.224       565.82
 1694       857.53       566.14
 1695      857.836       566.26
 1696      858.142       566.48
 1697      858.448        566.7
 1698      858.753       566.92
 1699      859.059       567.08
 1700      859.364       567.24
 1701      859.669       566.92
 1702      859.974        566.5
 1703      860.278       565.94
 1704      860.583       565.76
 1705      860.887       565.88
 1706      861.192       566.02
 1707      861.496       565.76
 1708        861.8       565.32
 1709      862.103       564.64
 1710      862.407       563.94
 1711       862.71       563.62
 1712      863.014       563.82
 1713      863.317        564.6
 1714       863.62        565.7
 1715      863.922       566.72
 1716      864.225       567.76
 1717      864.527       568.48
 1718       864.83       569.06
 1719      865.132       568.92
 1720      865.434        568.5
 1721      865.736       568.16
 1722      866.037       568.02
 1723      866.339       567.88
 1724       866.64       568.34
 1725      866.941       568.92
 1726      867.242       569.24
 1727      867.543       569.62
 1728      867.844       569.98
 1729      868.145       570.06
 1730      868.445       570.12
 1731      868.745       570.06
 1732      869.045       569.44
 1733      869.345        568.3
 1734      869.645        567.5
 1735      869.944          567
 1736      870.244       566.52
 1737      870.543       565.94
 1738      870.842       565.58
 1739      871.141       565.16
 1740       871.44       564.84
 1741      871.739       565.06
 1742      872.037        565.7
 1743      872.335       566.62
 1744      872.634       567.88
 1745      872.931       569.18
 1746      873.229       569.98
 1747      873.527        570.6
 1748      873.824       571.24
 1749      874.122       571.24
 1750      874.419       570.18
 1751      874.716       568.84
 1752      875.013       567.52
 1753      875.309        565.7
 1754      875.606       564.66
 1755      875.902       565.24
 1756      876.199       566.56
 1757      876.495       567.88
 1758       876.79       569.32
 1759      877.086       570.04
 1760      877.382       570.02
 1761      877.677       569.56
 1762      877.972       569.24
 1763      878.267        569.3
 1764      878.562        569.5
 1765      878.857       569.56
 1766      879.152       569.74
 1767      879.446       570.12
 1768       879.74       570.08
 1769      880.034       569.82
 1770      880.328       569.74
 1771      880.622       569.24
 1772      880.916       568.26
 1773      881.209       567.74
 1774      881.502       567.26
 1775      881.795       566.82
 1776      882.088       566.98
 1777      882.381       567.34
 1778      882.674       567.42
 1779      882.966       567.94
 1780      883.258       568.76
 1781      883.551       569.36
 1782      883.843       569.58
 1783      884.134       569.58
 1784      884.426       569.26
 1785      884.717        568.5
 1786      885.009       567.92
 1787        885.3          568
 1788      885.591       568.66
 1789      885.882          569
 1790      886.172        568.6
 1791      886.463       568.16
 1792      886.753        567.7
 1793      887.043       567.16
 1794      887.333       567.12
 1795      887.623       567.32
 1796      887.913       567.02
 1797      888.202       566.54
 1798      888.492       566.22
 1799      888.781       566.12
 1800       889.07       566.56
 1801      889.359       567.08
 1802      889.647       567.24
 1803      889.936       567.16
 1804      890.224       567.52
 1805      890.512       568.52
 1806        890.8       569.52
 1807      891.088          570
 1808      891.376        570.1
 1809      891.663       569.64
 1810      891.951       568.24
 1811      892.238       567.18
 1812      892.525       566.76
 1813      892.812        566.7
 1814      893.099       566.74
 1815      893.385       567.22
 1816      893.671          568
 1817      893.958        568.9
 1818      894.244        569.8
 1819       894.53       570.44
 1820      894.815       570.46
 1821      895.101       570.02
 1822      895.386       569.84
 1823      895.671       569.44
 1824      895.956       568.78
 1825      896.241       568.32
 1826      896.526       568.26
 1827       896.81       568.08
 1828      897.095        567.9
 1829      897.379       567.96
 1830      897.663       568.38
 1831      897.947       568.32
 1832      898.231        568.3
 1833      898.514       568.72
 1834      898.798       569.22
 1835      899.081       569.42
 1836      899.364       569.46
 1837      899.647          569
 1838      899.929          568
 1839      900.212       567.08
 1840      900.494        566.4
 1841      900.776        566.6
 1842      901.058       567.34
 1843       901.34        567.7
 1844      901.622       567.72
 1845      901.904       567.56
 1846      902.185        566.9
 1847      902.466       566.36
 1848      902.747       566.44
 1849      903.028        566.5
 1850      903.309        566.6
 1851      903.589       566.72
 1852       903.87       566.82
 1853       904.15       567.04
 1854       904.43       567.58
 1855       904.71       568.24
 1856      904.989       569.06
 1857      905.269       569.84
 1858      905.548       570.44
 1859      905.827       571.06
 1860      906.106        571.5
 1861      906.385       571.74
 1862      906.664       571.78
 1863      906.942       571.64
 1864      907.221       571.28
 1865      907.499       571.04
 1866      907.777       570.78
 1867      908.055       570.56
 1868      908.332       570.38
 1869       908.61       569.74
 1870      908.887       568.94
 1871      909.164       568.44
 1872      909.441       568.12
 1873      909.718       567.98
 1874      909.995        568.5
 1875      910.271       569.38
 1876      910.548       569.96
 1877      910.824       570.34
 1878        911.1       570.42
 1879      911.375       569.78
 1880      911.651       568.92
 1881      911.927       568.22
 1882      912.202       567.58
 1883      912.477       567.74
 1884      912.752       568.44
 1885      913.027       569.06
 1886      913.301       569.44
 1887      913.576       569.56
 1888       913.85       569.22
 1889      914.124       568.74
 1890      914.398       567.86
 1891      914.672       567.28
 1892      914.945       567.24
 1893      915.219       567.26
 1894      915.492       567.98
 1895      915.765       569.14
 1896      916.038       569.82
 1897      916.311       569.88
 1898      916.583       569.86
 1899      916.856       569.36
 1900      917.128       568.54
 1901        917.4       567.66
 1902      917.672       567.36
 1903      917.944       567.46
 1904      918.215       567.88
 1905      918.486       568.46
 1906      918.758       568.78
 1907      919.029       568.58
 1908      919.299       567.98
 1909       919.57        566.6
 1910      919.841       565.54
 1911      920.111       565.14
 1912      920.381        564.9
 1913      920.651       564.96
 1914      920.921       565.62
 1915      921.191       566.52
 1916       921.46       567.58
 1917      921.729       568.54
 1918      921.999        569.1
 1919      922.268       570.08
 1920      922.536       570.38
 1921      922.805       569.66
 1922      923.073       568.84
 1923      923.342       567.98
 1924       923.61       566.48
 1925      923.878       565.42
 1926      924.145       565.22
 1927      924.413        565.7
 1928       924.68       566.52
 1929      924.948       567.18
 1930      925.215       567.12
 1931      925.482       567.18
 1932      925.748       566.76
 1933      926.015       566.06
 1934      926.281       566.34
 1935      926.547       567.04
 1936      926.813       567.28
 1937      927.079       567.66
 1938      927.345        568.2
 1939       927.61       567.82
 1940      927.876       567.66
 1941      928.141       567.92
 1942      928.406       568.26
 1943      928.671       568.12
 1944      928.935        567.8
 1945        929.2       567.48
 1946      929.464       566.96
 1947      929.728        566.4
 1948      929.992       566.04
 1949      930.256       566.14
 1950       930.52       566.66
 1951      930.783       567.38
 1952      931.046       567.96
 1953      931.309       568.58
 1954      931.572       568.92
 1955      931.835       569.04
 1956      932.097       568.94
 1957       932.36       568.32
 1958      932.622        567.4
 1959      932.884        567.1
 1960      933.146       567.24
 1961      933.408       567.24
 1962      933.669       567.94
 1963       933.93       569.24
 1964      934.192       569.84
 1965      934.453       569.44
 1966      934.713       568.96
 1967      934.974       567.94
 1968      935.234       566.84
 1969      935.495        566.1
 1970      935.755       565.74
 1971      936.015       565.72
 1972      936.274       565.56
 1973      936.534       565.06
 1974      936.793       564.98
 1975      937.053        565.4
 1976      937.312       566.14
 1977      937.571        567.6
 1978      937.829        569.6
 1979      938.088        571.3
 1980      938.346       572.02
 1981      938.604       571.64
 1982      938.862       570.52
 1983       939.12       569.18
 1984      939.378       567.98
 1985      939.635       567.16
 1986      939.893        567.1
 1987       940.15       567.88
 1988      940.407       568.76
 1989      940.663       568.88
 1990       940.92        569.1
 1991      941.176        569.3
 1992      941.433       568.78
 1993      941.689       568.46
 1994      941.944        568.4
 1995        942.2       568.32
 1996      942.456       568.02
 1997      942.711       568.18
 1998      942.966       568.22
 1999      943.221        568.1
 2000      943.476       567.84
 2001      943.731       568.04
 2002      943.985       568.32
 2003      944.239       568.18
 2004      944.493       568.36
 2005      944.747       568.68
 2006      945.001       568.66
 2007      945.255       568.28
 2008      945.508       568.02
 2009      945.761       567.52
 2010      946.014       567.56
 2011      946.267       567.84
 2012       946.52        567.6
 2013      946.772       567.52
 2014      947.025       567.94
 2015      947.277       567.58
 2016      947.529        567.4
 2017      947.781       568.34
 2018      948.032        569.3
 2019      948.284       569.28
 2020      948.535       568.88
 2021      948.786       568.18
 2022      949.037        567.2
 2023      949.288       566.12
 2024      949.538       565.82
 2025      949.789       566.16
 2026      950.039       566.24
 2027      950.289       565.92
 2028      950.539       565.46
 2029      950.788       565.16
 2030      951.038       565.02
 2031      951.287       564.84
 2032      951.536       564.36
 2033      951.785       564.12
 2034      952.034       564.02
 2035      952.282       563.94
 2036      952.531       564.54
 2037      952.779       565.74
 2038      953.027       566.94
 2039      953.275       568.06
 2040      953.523       569.18
 2041       953.77       569.56
 2042      954.017       569.44
 2043      954.264          569
 2044      954.511       568.58
 2045      954.758       568.14
 2046      955.005      567.775
 2047      955.251      567.867
