scansci Spectrometer Data File
--- Measurement Setting ---
Type: Sample Spectrum
Date: Mon Oct 16 18:09:52 2023
User: (Reserved by scansci)
Serial: (Reserved by scansci)
Channel: No. 11
Integration Time: 1
Average: 10
Boxcar: 2
Electrical Dark: No-corrected
Time Normalize: (Reserved by scansci)
Dual-beam: (Reserved by scansci)
Reference Ch: (Reserved by scansci)
--- Measurement Data ---
Pixel   Wavelength   Intensity
    0        344.4      685.733
    1      344.867      684.975
    2      345.334       683.76
    3      345.801       682.54
    4      346.268       681.08
    5      346.735       679.76
    6      347.202       679.08
    7      347.669        679.4
    8      348.135        679.9
    9      348.602       680.44
   10      349.068        680.9
   11      349.535       681.08
   12      350.001       681.22
   13      350.467       681.28
   14      350.933       680.66
   15      351.399       679.96
   16      351.866       680.06
   17      352.331        680.3
   18      352.797       680.26
   19      353.263       680.52
   20      353.729       681.18
   21      354.194       681.96
   22       354.66       682.82
   23      355.126       684.14
   24      355.591       685.36
   25      356.056       685.76
   26      356.522        685.2
   27      356.987       683.78
   28      357.452       682.04
   29      357.917       680.64
   30      358.382       680.32
   31      358.847       680.68
   32      359.312       681.12
   33      359.776       681.46
   34      360.241       681.62
   35      360.706       681.16
   36       361.17        680.2
   37      361.634       679.52
   38      362.099       679.52
   39      362.563       679.74
   40      363.027       679.48
   41      363.491       679.52
   42      363.955       679.86
   43      364.419       680.14
   44      364.883       680.22
   45      365.347       680.62
   46      365.811       681.22
   47      366.274          682
   48      366.738       682.64
   49      367.201       682.64
   50      367.665       682.36
   51      368.128       682.28
   52      368.592       681.78
   53      369.055        681.1
   54      369.518       681.18
   55      369.981       681.66
   56      370.444       681.48
   57      370.907       681.38
   58       371.37       681.62
   59      371.832        682.1
   60      372.295       682.54
   61      372.757       682.76
   62       373.22        682.8
   63      373.682        682.4
   64      374.145        681.4
   65      374.607       680.44
   66      375.069       679.94
   67      375.531       679.84
   68      375.993       680.36
   69      376.455       681.08
   70      376.917       682.04
   71      377.379       683.16
   72      377.841       683.76
   73      378.302       683.76
   74      378.764       683.98
   75      379.225       683.94
   76      379.687       683.68
   77      380.148       683.64
   78      380.609       683.38
   79      381.071       682.62
   80      381.532       681.94
   81      381.993       681.34
   82      382.454       680.76
   83      382.915        680.8
   84      383.375       680.92
   85      383.836       680.84
   86      384.297       681.24
   87      384.757       681.62
   88      385.218        681.1
   89      385.678       680.64
   90      386.138        680.6
   91      386.599        680.4
   92      387.059       680.12
   93      387.519       680.34
   94      387.979       680.82
   95      388.439       681.32
   96      388.899       681.66
   97      389.358        682.2
   98      389.818        682.6
   99      390.278       682.58
  100      390.737        682.4
  101      391.197       682.38
  102      391.656        682.1
  103      392.115       682.14
  104      392.575       682.76
  105      393.034       683.02
  106      393.493       682.92
  107      393.952       683.06
  108      394.411        683.2
  109       394.87       683.04
  110      395.328        683.3
  111      395.787       683.82
  112      396.246       684.16
  113      396.704       683.96
  114      397.163       683.48
  115      397.621        682.4
  116      398.079       681.14
  117      398.537        680.1
  118      398.995       679.46
  119      399.454        679.1
  120      399.911       678.88
  121      400.369        678.8
  122      400.827       678.96
  123      401.285       679.48
  124      401.743       680.52
  125        402.2        681.9
  126      402.658        682.8
  127      403.115          683
  128      403.572       682.52
  129       404.03       681.16
  130      404.487       680.06
  131      404.944       679.78
  132      405.401       680.18
  133      405.858          681
  134      406.315       682.08
  135      406.771       682.72
  136      407.228       682.48
  137      407.685       681.86
  138      408.141       681.64
  139      408.598        681.5
  140      409.054       681.42
  141       409.51       681.74
  142      409.967       682.04
  143      410.423       682.12
  144      410.879       682.42
  145      411.335       682.64
  146      411.791       682.88
  147      412.246        682.9
  148      412.702       682.14
  149      413.158        681.4
  150      413.613       681.12
  151      414.069       681.12
  152      414.524       681.86
  153       414.98       683.08
  154      415.435       683.94
  155       415.89        684.4
  156      416.345       684.68
  157        416.8       684.22
  158      417.255       683.76
  159       417.71       684.14
  160      418.165       684.92
  161      418.619       685.56
  162      419.074       685.64
  163      419.529       685.68
  164      419.983       685.22
  165      420.437       684.34
  166      420.892       683.08
  167      421.346       682.94
  168        421.8       683.34
  169      422.254       683.56
  170      422.708       683.78
  171      423.162        683.9
  172      423.616       683.54
  173       424.07       683.12
  174      424.523        682.7
  175      424.977       681.94
  176       425.43       682.04
  177      425.884        682.7
  178      426.337       682.82
  179       426.79       683.02
  180      427.243       683.64
  181      427.697       683.92
  182       428.15       683.32
  183      428.602       682.64
  184      429.055       681.86
  185      429.508       681.18
  186      429.961       680.06
  187      430.413       679.62
  188      430.866       679.38
  189      431.318       679.42
  190      431.771       679.56
  191      432.223       680.14
  192      432.675        680.7
  193      433.127       681.36
  194      433.579       681.42
  195      434.031       681.16
  196      434.483       681.28
  197      434.935       681.32
  198      435.387        681.2
  199      435.838       681.26
  200       436.29       681.04
  201      436.741       680.28
  202      437.193       679.62
  203      437.644        679.2
  204      438.095       679.26
  205      438.546       679.88
  206      438.997        680.4
  207      439.448       680.88
  208      439.899       681.36
  209       440.35        681.3
  210      440.801       680.88
  211      441.251       680.82
  212      441.702        680.9
  213      442.152       680.92
  214      442.603        680.9
  215      443.053          681
  216      443.503       681.18
  217      443.954       681.54
  218      444.404       681.84
  219      444.854        682.3
  220      445.304       682.62
  221      445.753       682.52
  222      446.203       681.86
  223      446.653       681.52
  224      447.102       681.68
  225      447.552       682.14
  226      448.001        682.6
  227      448.451        683.3
  228        448.9       683.56
  229      449.349       683.46
  230      449.798       683.48
  231      450.247       683.58
  232      450.696       683.24
  233      451.145       683.16
  234      451.594          683
  235      452.042       682.54
  236      452.491       682.04
  237      452.939       681.68
  238      453.388       680.82
  239      453.836       680.28
  240      454.285       679.98
  241      454.733       679.54
  242      455.181        679.4
  243      455.629        679.8
  244      456.077       680.12
  245      456.525       680.22
  246      456.972       680.18
  247       457.42       680.16
  248      457.868        679.9
  249      458.315       679.28
  250      458.763       679.04
  251       459.21       679.36
  252      459.657       679.48
  253      460.104       679.68
  254      460.552        680.2
  255      460.999       680.24
  256      461.446       680.04
  257      461.892       680.28
  258      462.339       680.58
  259      462.786       680.76
  260      463.233        681.3
  261      463.679       681.86
  262      464.125       681.94
  263      464.572       681.72
  264      465.018        681.3
  265      465.464        680.8
  266       465.91       680.44
  267      466.356       680.22
  268      466.802       680.04
  269      467.248        679.9
  270      467.694       679.98
  271       468.14       680.16
  272      468.585       679.78
  273      469.031        679.3
  274      469.476       679.48
  275      469.922       679.94
  276      470.367       680.12
  277      470.812        680.7
  278      471.257       681.74
  279      471.702       682.32
  280      472.147       681.98
  281      472.592       681.72
  282      473.037       681.46
  283      473.482       681.24
  284      473.926       681.28
  285      474.371       681.56
  286      474.815       681.92
  287      475.259        682.5
  288      475.704       682.74
  289      476.148        682.7
  290      476.592       682.68
  291      477.036       682.44
  292       477.48       681.76
  293      477.924       681.08
  294      478.368        680.4
  295      478.811       679.46
  296      479.255       678.54
  297      479.698       678.38
  298      480.142       678.96
  299      480.585       679.18
  300      481.028       679.52
  301      481.472       680.22
  302      481.915       680.58
  303      482.358       680.62
  304      482.801       680.82
  305      483.244       680.98
  306      483.686       681.02
  307      484.129       681.32
  308      484.572       681.14
  309      485.014       680.92
  310      485.456       681.36
  311      485.899       681.86
  312      486.341       681.86
  313      486.783       682.06
  314      487.225        682.1
  315      487.667       681.52
  316      488.109       680.74
  317      488.551       680.48
  318      488.993        680.5
  319      489.434       680.86
  320      489.876       681.42
  321      490.318       682.34
  322      490.759       682.84
  323        491.2       682.94
  324      491.641        682.8
  325      492.083       682.32
  326      492.524       681.96
  327      492.965       682.06
  328      493.406       682.18
  329      493.846       682.72
  330      494.287       684.12
  331      494.728       685.74
  332      495.168       687.46
  333      495.609       689.18
  334      496.049       690.58
  335      496.489        691.2
  336       496.93       691.14
  337       497.37        690.6
  338       497.81        690.2
  339       498.25       690.02
  340       498.69       689.78
  341      499.129       689.96
  342      499.569        690.6
  343      500.009        691.3
  344      500.448        692.3
  345      500.888        693.7
  346      501.327       694.46
  347      501.766       694.42
  348      502.206          694
  349      502.645        693.4
  350      503.084       692.68
  351      503.523       692.52
  352      503.961       692.92
  353        504.4       693.12
  354      504.839       693.26
  355      505.277       694.12
  356      505.716        694.5
  357      506.154       693.86
  358      506.593       693.66
  359      507.031       693.32
  360      507.469       692.16
  361      507.907       691.62
  362      508.345       692.42
  363      508.783       693.24
  364      509.221       694.04
  365      509.659       695.44
  366      510.096       696.86
  367      510.534       697.62
  368      510.971       698.06
  369      511.409       698.34
  370      511.846       698.08
  371      512.283       697.26
  372       512.72       696.56
  373      513.157       696.38
  374      513.594       696.44
  375      514.031       696.56
  376      514.468       697.02
  377      514.905       697.72
  378      515.341        697.6
  379      515.778        697.2
  380      516.214       697.06
  381       516.65       697.22
  382      517.087       697.82
  383      517.523       699.24
  384      517.959       700.92
  385      518.395       702.38
  386      518.831       703.36
  387      519.267       703.42
  388      519.702        702.7
  389      520.138          702
  390      520.574       701.68
  391      521.009       701.32
  392      521.444        701.4
  393       521.88       702.42
  394      522.315       703.58
  395       522.75       704.16
  396      523.185       704.86
  397       523.62       705.58
  398      524.055       705.94
  399       524.49       706.42
  400      524.924       707.26
  401      525.359       708.26
  402      525.794        709.3
  403      526.228        710.2
  404      526.662       710.54
  405      527.097        710.6
  406      527.531        710.4
  407      527.965       710.32
  408      528.399        710.5
  409      528.833       711.16
  410      529.267       711.94
  411        529.7       712.72
  412      530.134        713.1
  413      530.568       713.54
  414      531.001       714.04
  415      531.434       714.78
  416      531.868        715.7
  417      532.301       716.38
  418      532.734       716.78
  419      533.167       717.22
  420        533.6       718.18
  421      534.033       719.34
  422      534.466       720.58
  423      534.898       722.04
  424      535.331       723.76
  425      535.763       725.66
  426      536.196       727.96
  427      536.628       731.52
  428       537.06        736.2
  429      537.493       740.96
  430      537.925       745.92
  431      538.357        751.8
  432      538.788       758.62
  433       539.22       766.72
  434      539.652       778.06
  435      540.084       793.44
  436      540.515       812.46
  437      540.947       834.74
  438      541.378          858
  439      541.809        879.3
  440       542.24       896.58
  441      542.672        908.8
  442      543.103        915.7
  443      543.533       919.42
  444      543.964        925.8
  445      544.395        949.1
  446      544.826      1006.24
  447      545.256      1098.46
  448      545.687      1204.12
  449      546.117      1285.36
  450      546.547       1314.2
  451      546.978      1283.36
  452      547.408      1200.98
  453      547.838       1094.3
  454      548.268       999.96
  455      548.698       934.82
  456      549.127        891.8
  457      549.557       862.36
  458      549.987        841.2
  459      550.416       826.04
  460      550.846       814.58
  461      551.275       805.18
  462      551.704       797.72
  463      552.133       792.26
  464      552.562       787.66
  465      552.991        783.2
  466       553.42       778.96
  467      553.849       774.74
  468      554.278       769.78
  469      554.706        764.7
  470      555.135        760.6
  471      555.563        757.7
  472      555.991       755.48
  473       556.42       753.76
  474      556.848       752.64
  475      557.276        751.9
  476      557.704        751.1
  477      558.132       750.54
  478       558.56       750.58
  479      558.987       750.32
  480      559.415       749.52
  481      559.843        748.9
  482       560.27       748.44
  483      560.697       747.88
  484      561.125       747.56
  485      561.552        747.6
  486      561.979       747.52
  487      562.406       747.34
  488      562.833        746.9
  489       563.26       746.72
  490      563.686       747.26
  491      564.113       747.72
  492       564.54       748.24
  493      564.966       749.76
  494      565.392       751.42
  495      565.819       752.16
  496      566.245       752.92
  497      566.671       754.02
  498      567.097       754.82
  499      567.523        755.7
  500      567.949       756.86
  501      568.374        757.6
  502        568.8       758.18
  503      569.226       759.16
  504      569.651       759.66
  505      570.077       759.94
  506      570.502       760.74
  507      570.927       761.42
  508      571.352        761.5
  509      571.777       762.04
  510      572.202       763.26
  511      572.627       764.66
  512      573.052       766.08
  513      573.476       767.68
  514      573.901       770.06
  515      574.325        772.6
  516       574.75       776.08
  517      575.174       783.96
  518      575.598       800.58
  519      576.022       827.42
  520      576.446       861.84
  521       576.87          895
  522      577.294       920.78
  523      577.718       939.64
  524      578.142       952.84
  525      578.565       961.52
  526      578.989       966.16
  527      579.412       964.78
  528      579.835       953.76
  529      580.259       931.06
  530      580.682       901.18
  531      581.105       873.58
  532      581.528       853.78
  533      581.951       841.26
  534      582.373       835.68
  535      582.796       834.96
  536      583.219       836.82
  537      583.641        839.8
  538      584.063       843.04
  539      584.486       845.24
  540      584.908       845.78
  541       585.33       845.06
  542      585.752       844.32
  543      586.174       844.06
  544      586.596       845.08
  545      587.018       846.88
  546      587.439        848.2
  547      587.861        848.1
  548      588.282       846.16
  549      588.704       841.94
  550      589.125       836.28
  551      589.546       831.28
  552      589.967       827.56
  553      590.388       825.02
  554      590.809        824.2
  555       591.23       824.56
  556      591.651        825.5
  557      592.071       827.46
  558      592.492       830.52
  559      592.912        833.6
  560      593.333       835.54
  561      593.753       835.54
  562      594.173       832.88
  563      594.593       827.86
  564      595.013       821.48
  565      595.433       815.06
  566      595.853        809.5
  567      596.273        805.5
  568      596.693       802.34
  569      597.112        799.7
  570      597.532       798.46
  571      597.951       798.54
  572       598.37       799.52
  573      598.789        801.5
  574      599.208       803.72
  575      599.627       805.12
  576      600.046       805.66
  577      600.465        804.8
  578      600.884       802.74
  579      601.303       800.26
  580      601.721       797.44
  581      602.139       794.18
  582      602.558        791.6
  583      602.976        790.1
  584      603.394       788.76
  585      603.812        787.8
  586       604.23       787.84
  587      604.648       788.48
  588      605.066       789.38
  589      605.484        791.1
  590      605.901       793.44
  591      606.319       796.14
  592      606.736       798.96
  593      607.154       802.02
  594      607.571       806.26
  595      607.988       812.04
  596      608.405       820.14
  597      608.822       832.38
  598      609.239       852.46
  599      609.656       885.82
  600      610.072       936.66
  601      610.489      1004.16
  602      610.905      1078.54
  603      611.322      1143.14
  604      611.738       1183.8
  605      612.154       1193.6
  606       612.57      1172.56
  607      612.986      1129.98
  608      613.402      1081.14
  609      613.818      1035.96
  610      614.234        998.2
  611       614.65       967.54
  612      615.065       942.56
  613      615.481       920.96
  614      615.896       900.78
  615      616.311       881.76
  616      616.727        864.7
  617      617.142       850.22
  618      617.557       838.38
  619      617.972       829.38
  620      618.386       822.72
  621      618.801          818
  622      619.216       815.12
  623       619.63       813.46
  624      620.045       812.76
  625      620.459       813.24
  626      620.873        814.1
  627      621.287       814.38
  628      621.702       814.18
  629      622.116       813.84
  630      622.529       813.28
  631      622.943        812.4
  632      623.357       811.28
  633      623.771       810.04
  634      624.184       808.92
  635      624.597       807.86
  636      625.011       806.92
  637      625.424       806.52
  638      625.837       806.18
  639       626.25       805.16
  640      626.663        803.1
  641      627.076       800.48
  642      627.489       797.54
  643      627.901       794.84
  644      628.314       792.22
  645      628.726       790.26
  646      629.139       789.12
  647      629.551       789.12
  648      629.963       791.06
  649      630.375          795
  650      630.787       798.82
  651      631.199       801.24
  652      631.611        800.8
  653      632.023       796.14
  654      632.434       787.56
  655      632.846        777.8
  656      633.257       768.42
  657      633.669       759.88
  658       634.08       753.14
  659      634.491       748.36
  660      634.902       744.68
  661      635.313        741.6
  662      635.724       738.78
  663      636.135       736.06
  664      636.545       733.94
  665      636.956        732.3
  666      637.366       731.28
  667      637.777        731.3
  668      638.187       731.98
  669      638.597       732.54
  670      639.007       732.22
  671      639.417       731.04
  672      639.827        729.4
  673      640.237        728.1
  674      640.647       727.52
  675      641.056       727.12
  676      641.466       726.76
  677      641.875        726.5
  678      642.285       725.98
  679      642.694       724.96
  680      643.103        724.6
  681      643.512       724.62
  682      643.921       724.24
  683       644.33       723.98
  684      644.739       724.32
  685      645.148       724.82
  686      645.556       725.22
  687      645.965       725.62
  688      646.373       725.34
  689      646.781       724.28
  690      647.189       722.96
  691      647.598        722.4
  692      648.006       722.66
  693      648.414       723.58
  694      648.821       724.86
  695      649.229        726.9
  696      649.637          729
  697      650.044       730.76
  698      650.452       732.28
  699      650.859       733.78
  700      651.266        734.2
  701      651.673        733.7
  702       652.08        732.8
  703      652.487       731.22
  704      652.894       728.92
  705      653.301       726.22
  706      653.708        723.7
  707      654.114       721.84
  708      654.521       720.82
  709      654.927       720.38
  710      655.333       720.26
  711       655.74       720.22
  712      656.146       720.32
  713      656.552       720.62
  714      656.958       720.78
  715      657.363       720.68
  716      657.769       719.98
  717      658.175       718.64
  718       658.58       716.86
  719      658.986       714.78
  720      659.391       713.42
  721      659.796       712.84
  722      660.201       712.56
  723      660.606       712.72
  724      661.011       713.54
  725      661.416       714.38
  726      661.821       715.12
  727      662.225       716.08
  728       662.63       716.92
  729      663.034       717.56
  730      663.439       717.68
  731      663.843       717.26
  732      664.247       716.96
  733      664.651       716.38
  734      665.055       715.34
  735      665.459       714.22
  736      665.863       713.22
  737      666.267       711.88
  738       666.67       710.86
  739      667.074       710.38
  740      667.477       710.06
  741       667.88       709.86
  742      668.283       709.64
  743      668.687       709.04
  744       669.09       707.84
  745      669.492       706.38
  746      669.895       705.26
  747      670.298       704.52
  748      670.701       704.44
  749      671.103       704.78
  750      671.505       704.96
  751      671.908       704.88
  752       672.31       704.76
  753      672.712       703.96
  754      673.114       703.12
  755      673.516       703.16
  756      673.918       703.16
  757       674.32          703
  758      674.721       702.98
  759      675.123       703.28
  760      675.524       703.54
  761      675.926       703.52
  762      676.327       703.32
  763      676.728        703.4
  764      677.129       703.28
  765       677.53       703.38
  766      677.931       704.04
  767      678.332       704.54
  768      678.732        704.5
  769      679.133       703.94
  770      679.533       703.08
  771      679.934       702.54
  772      680.334        702.2
  773      680.734       702.02
  774      681.134       701.96
  775      681.534       701.76
  776      681.934        701.2
  777      682.334       700.78
  778      682.733       700.64
  779      683.133       700.82
  780      683.532       701.16
  781      683.932       701.54
  782      684.331       701.72
  783       684.73        701.5
  784      685.129       700.94
  785      685.528       700.56
  786      685.927       700.72
  787      686.326       701.68
  788      686.725        703.5
  789      687.123       705.52
  790      687.522       707.08
  791       687.92        708.2
  792      688.319        708.2
  793      688.717       707.26
  794      689.115       706.58
  795      689.513       706.22
  796      689.911        705.6
  797      690.309        705.3
  798      690.706       705.26
  799      691.104       704.82
  800      691.501        703.6
  801      691.899        702.1
  802      692.296       700.56
  803      692.693        699.2
  804       693.09       698.68
  805      693.488       698.74
  806      693.884       698.78
  807      694.281       698.84
  808      694.678        698.7
  809      695.075       697.76
  810      695.471       696.82
  811      695.868       696.32
  812      696.264       695.76
  813       696.66       695.04
  814      697.056       694.34
  815      697.452       693.48
  816      697.848       692.18
  817      698.244       690.88
  818       698.64       689.98
  819      699.035        689.7
  820      699.431       689.56
  821      699.826       689.64
  822      700.222       689.86
  823      700.617          690
  824      701.012          690
  825      701.407        690.1
  826      701.802       690.56
  827      702.197       691.28
  828      702.592        692.4
  829      702.986        693.6
  830      703.381       694.84
  831      703.775       695.76
  832       704.17          697
  833      704.564       698.24
  834      704.958        699.7
  835      705.352       701.82
  836      705.746       704.88
  837       706.14       707.68
  838      706.533       710.26
  839      706.927       712.56
  840      707.321       714.76
  841      707.714       716.92
  842      708.107       719.34
  843      708.501       721.48
  844      708.894       722.68
  845      709.287       722.54
  846       709.68       720.56
  847      710.073       717.24
  848      710.465       713.54
  849      710.858       710.68
  850      711.251        709.4
  851      711.643       709.68
  852      712.035        710.8
  853      712.428       712.04
  854       712.82       712.52
  855      713.212        711.3
  856      713.604       708.26
  857      713.995        704.2
  858      714.387       699.98
  859      714.779       696.58
  860       715.17       693.94
  861      715.562       692.08
  862      715.953       691.14
  863      716.344       690.86
  864      716.735       689.92
  865      717.127       688.62
  866      717.517       687.58
  867      717.908       686.74
  868      718.299        686.1
  869       718.69       685.94
  870       719.08       686.54
  871      719.471       687.56
  872      719.861       688.24
  873      720.251       688.68
  874      720.641       688.72
  875      721.031       688.18
  876      721.421       687.34
  877      721.811       686.82
  878      722.201       686.22
  879       722.59       685.52
  880       722.98       684.98
  881      723.369          685
  882      723.759        684.9
  883      724.148       684.82
  884      724.537        685.5
  885      724.926       686.26
  886      725.315       686.28
  887      725.704       686.36
  888      726.092       686.72
  889      726.481       686.64
  890       726.87       686.48
  891      727.258       686.72
  892      727.646        686.8
  893      728.034       686.46
  894      728.423       686.38
  895      728.811       686.46
  896      729.198       686.16
  897      729.586       686.14
  898      729.974       686.34
  899      730.362       686.64
  900      730.749       687.26
  901      731.136       687.92
  902      731.524       688.28
  903      731.911       688.38
  904      732.298       687.76
  905      732.685        686.8
  906      733.072       685.94
  907      733.459       685.34
  908      733.845        685.4
  909      734.232       686.04
  910      734.618       686.08
  911      735.005       686.02
  912      735.391        686.2
  913      735.777       685.98
  914      736.163       685.26
  915      736.549       685.16
  916      736.935       685.62
  917      737.321       685.56
  918      737.706       685.44
  919      738.092       686.16
  920      738.477        686.7
  921      738.863        686.7
  922      739.248        686.5
  923      739.633       686.16
  924      740.018       685.52
  925      740.403       685.24
  926      740.788       685.26
  927      741.173       685.66
  928      741.557       686.18
  929      741.942        686.5
  930      742.326        686.2
  931      742.711       685.72
  932      743.095        685.1
  933      743.479       684.02
  934      743.863       682.66
  935      744.247       681.56
  936      744.631       681.12
  937      745.015       681.12
  938      745.398       681.36
  939      745.782       682.22
  940      746.165       683.44
  941      746.548       684.32
  942      746.932       684.88
  943      747.315        685.6
  944      747.698       686.26
  945      748.081       686.72
  946      748.463       686.82
  947      748.846       686.74
  948      749.229       686.48
  949      749.611       685.92
  950      749.993        685.3
  951      750.376       685.38
  952      750.758       686.06
  953       751.14       686.98
  954      751.522       687.64
  955      751.904       688.16
  956      752.285          688
  957      752.667       687.26
  958      753.049        686.5
  959       753.43       685.96
  960      753.811       685.34
  961      754.193       685.08
  962      754.574        685.1
  963      754.955        684.6
  964      755.336       684.02
  965      755.717       683.68
  966      756.097        683.2
  967      756.478       683.04
  968      756.858        683.5
  969      757.239        683.7
  970      757.619       683.86
  971      757.999        684.3
  972      758.379       684.22
  973      758.759        683.8
  974      759.139       683.66
  975      759.519       683.44
  976      759.899       683.26
  977      760.278       683.52
  978      760.658       683.98
  979      761.037       684.38
  980      761.417       684.68
  981      761.796       684.58
  982      762.175       684.74
  983      762.554       685.44
  984      762.933        686.2
  985      763.311       687.52
  986       763.69        689.2
  987      764.068       690.24
  988      764.447        690.8
  989      764.825       691.22
  990      765.203        691.1
  991      765.582        690.3
  992       765.96       689.14
  993      766.338       687.68
  994      766.715       686.66
  995      767.093       685.88
  996      767.471       685.64
  997      767.848       685.48
  998      768.226       685.62
  999      768.603       685.68
 1000       768.98       685.22
 1001      769.357        684.5
 1002      769.734       684.06
 1003      770.111       683.38
 1004      770.488        682.7
 1005      770.864        682.7
 1006      771.241       683.12
 1007      771.617        684.2
 1008      771.994       685.78
 1009       772.37        687.2
 1010      772.746        688.3
 1011      773.122       689.26
 1012      773.498       688.98
 1013      773.874       687.64
 1014       774.25       686.36
 1015      774.625       685.26
 1016      775.001       684.02
 1017      775.376       683.46
 1018      775.751       683.88
 1019      776.127       684.24
 1020      776.502       684.36
 1021      776.877       684.66
 1022      777.252       684.82
 1023      777.626        684.3
 1024      778.001        683.8
 1025      778.375       683.26
 1026       778.75       682.48
 1027      779.124        681.6
 1028      779.499       681.22
 1029      779.873       681.16
 1030      780.247        681.4
 1031      780.621       681.82
 1032      780.994       682.36
 1033      781.368       682.76
 1034      781.742       683.02
 1035      782.115       683.26
 1036      782.489       683.14
 1037      782.862       683.06
 1038      783.235       683.12
 1039      783.608          683
 1040      783.981       682.62
 1041      784.354       682.28
 1042      784.727       682.16
 1043        785.1       682.02
 1044      785.472       682.06
 1045      785.845        682.4
 1046      786.217       682.96
 1047      786.589       683.38
 1048      786.961        683.4
 1049      787.333        683.2
 1050      787.705        683.3
 1051      788.077       683.38
 1052      788.449       683.06
 1053       788.82       682.78
 1054      789.192       682.68
 1055      789.563       682.04
 1056      789.934       681.26
 1057      790.306       681.14
 1058      790.677       681.54
 1059      791.048       682.32
 1060      791.419        683.8
 1061      791.789       685.42
 1062       792.16       686.06
 1063       792.53        686.3
 1064      792.901       686.44
 1065      793.271       686.12
 1066      793.641       685.38
 1067      794.012        685.3
 1068      794.382       685.96
 1069      794.751       686.64
 1070      795.121       686.98
 1071      795.491       687.26
 1072      795.861       687.64
 1073       796.23        687.6
 1074      796.599          687
 1075      796.969       686.24
 1076      797.338       685.48
 1077      797.707       684.84
 1078      798.076       684.28
 1079      798.445       683.44
 1080      798.813        682.5
 1081      799.182       681.86
 1082       799.55       681.24
 1083      799.919       680.46
 1084      800.287       680.28
 1085      800.655        680.6
 1086      801.023       680.88
 1087      801.391       680.74
 1088      801.759       680.56
 1089      802.127       680.58
 1090      802.495       680.66
 1091      802.862        681.1
 1092       803.23       681.92
 1093      803.597       682.94
 1094      803.964       683.84
 1095      804.331       684.66
 1096      804.698       685.42
 1097      805.065       686.14
 1098      805.432       686.66
 1099      805.799       687.16
 1100      806.165       687.84
 1101      806.532       688.02
 1102      806.898       687.84
 1103      807.264       687.22
 1104      807.631       686.16
 1105      807.997       685.08
 1106      808.363       684.12
 1107      808.728        683.5
 1108      809.094       683.48
 1109       809.46       683.48
 1110      809.825       683.22
 1111      810.191       683.22
 1112      810.556        683.3
 1113      810.921       683.46
 1114      811.286        684.2
 1115      811.651       685.34
 1116      812.016       686.32
 1117      812.381       687.06
 1118      812.745       687.32
 1119       813.11        686.9
 1120      813.474       686.08
 1121      813.839        685.3
 1122      814.203        684.2
 1123      814.567        683.4
 1124      814.931        683.4
 1125      815.295       683.32
 1126      815.659       683.04
 1127      816.022       683.14
 1128      816.386       683.06
 1129      816.749       682.44
 1130      817.113       682.18
 1131      817.476       681.96
 1132      817.839       681.78
 1133      818.202       682.14
 1134      818.565       682.18
 1135      818.928        681.7
 1136      819.291        681.7
 1137      819.653       681.78
 1138      820.016       681.42
 1139      820.378       681.34
 1140       820.74       681.66
 1141      821.102       681.82
 1142      821.464       681.64
 1143      821.826       681.44
 1144      822.188       681.72
 1145       822.55       682.16
 1146      822.912       682.74
 1147      823.273       683.56
 1148      823.634       683.94
 1149      823.996       683.44
 1150      824.357       682.68
 1151      824.718       681.86
 1152      825.079       681.46
 1153       825.44       681.98
 1154      825.801       682.92
 1155      826.161       684.02
 1156      826.522       685.12
 1157      826.882       685.84
 1158      827.242       686.18
 1159      827.603       685.96
 1160      827.963       685.24
 1161      828.323       684.46
 1162      828.682       683.58
 1163      829.042       682.68
 1164      829.402        682.7
 1165      829.761       683.14
 1166      830.121          683
 1167       830.48       683.14
 1168      830.839       683.42
 1169      831.198       683.28
 1170      831.557          683
 1171      831.916        683.1
 1172      832.275       682.72
 1173      832.634       682.16
 1174      832.992       681.98
 1175      833.351       682.12
 1176      833.709       682.26
 1177      834.067       682.26
 1178      834.425       682.26
 1179      834.783       682.32
 1180      835.141       682.08
 1181      835.499        681.7
 1182      835.857       681.28
 1183      836.214       680.86
 1184      836.572       680.42
 1185      836.929       679.56
 1186      837.286       678.74
 1187      837.644       678.66
 1188      838.001       678.84
 1189      838.357       679.28
 1190      838.714       679.86
 1191      839.071       680.64
 1192      839.428       681.36
 1193      839.784       681.82
 1194       840.14       682.14
 1195      840.497        683.1
 1196      840.853       683.72
 1197      841.209       683.68
 1198      841.565       683.98
 1199       841.92       684.06
 1200      842.276       683.76
 1201      842.632       683.56
 1202      842.987       683.58
 1203      843.343       683.38
 1204      843.698        682.9
 1205      844.053       682.54
 1206      844.408       681.98
 1207      844.763       681.14
 1208      845.118       680.34
 1209      845.472       679.96
 1210      845.827       679.76
 1211      846.181       679.92
 1212      846.536        680.2
 1213       846.89       680.62
 1214      847.244       681.24
 1215      847.598       681.52
 1216      847.952       681.68
 1217      848.306       682.48
 1218       848.66       683.28
 1219      849.013       683.18
 1220      849.367       683.14
 1221       849.72       683.24
 1222      850.073       683.02
 1223      850.427        682.3
 1224       850.78        681.7
 1225      851.133       681.28
 1226      851.485       680.96
 1227      851.838        680.3
 1228      852.191          680
 1229      852.543       680.38
 1230      852.896       680.82
 1231      853.248        681.3
 1232        853.6       682.04
 1233      853.952        682.6
 1234      854.304       682.78
 1235      854.656       682.56
 1236      855.007       682.26
 1237      855.359       681.72
 1238       855.71       681.28
 1239      856.062       681.06
 1240      856.413        681.5
 1241      856.764       682.06
 1242      857.115       682.66
 1243      857.466       682.96
 1244      857.817       682.96
 1245      858.168       682.66
 1246      858.518       681.98
 1247      858.869       681.62
 1248      859.219       682.28
 1249      859.569       682.74
 1250       859.92       682.44
 1251       860.27       682.22
 1252      860.619       682.64
 1253      860.969          683
 1254      861.319       683.44
 1255      861.669        684.2
 1256      862.018       684.96
 1257      862.367       684.72
 1258      862.717       683.54
 1259      863.066        682.8
 1260      863.415       682.26
 1261      863.764       681.54
 1262      864.112        681.4
 1263      864.461       681.88
 1264       864.81       682.32
 1265      865.158        682.8
 1266      865.507        683.5
 1267      865.855        683.9
 1268      866.203       683.46
 1269      866.551       682.88
 1270      866.899       682.36
 1271      867.247       681.82
 1272      867.594        681.3
 1273      867.942       680.64
 1274      868.289       680.08
 1275      868.637       680.18
 1276      868.984       680.38
 1277      869.331        680.5
 1278      869.678       681.24
 1279      870.025       681.72
 1280      870.372       681.38
 1281      870.718       681.02
 1282      871.065        680.9
 1283      871.411       680.74
 1284      871.758       680.46
 1285      872.104       680.58
 1286       872.45       680.92
 1287      872.796        680.5
 1288      873.142          680
 1289      873.488       680.46
 1290      873.833       681.14
 1291      874.179       681.84
 1292      874.524       682.56
 1293      874.869       682.94
 1294      875.215       682.62
 1295       875.56       682.06
 1296      875.905       681.44
 1297       876.25        681.1
 1298      876.594       681.04
 1299      876.939       681.06
 1300      877.283        680.6
 1301      877.628       679.76
 1302      877.972       679.84
 1303      878.316       680.36
 1304       878.66       680.54
 1305      879.004        680.5
 1306      879.348       680.94
 1307      879.692        681.3
 1308      880.035       681.18
 1309      880.379       681.06
 1310      880.722        681.3
 1311      881.066       681.34
 1312      881.409       680.84
 1313      881.752       680.82
 1314      882.095        680.8
 1315      882.438       680.66
 1316       882.78       680.46
 1317      883.123       680.58
 1318      883.465       680.84
 1319      883.808       681.34
 1320       884.15       682.06
 1321      884.492       683.22
 1322      884.834       683.58
 1323      885.176       683.04
 1324      885.518       682.52
 1325      885.859       682.24
 1326      886.201        681.3
 1327      886.542       680.82
 1328      886.884          681
 1329      887.225       681.24
 1330      887.566       681.42
 1331      887.907       681.74
 1332      888.248       681.98
 1333      888.589       681.92
 1334      888.929       681.74
 1335       889.27       681.32
 1336       889.61       680.54
 1337      889.951       679.64
 1338      890.291       679.16
 1339      890.631       679.28
 1340      890.971       679.94
 1341      891.311       681.34
 1342       891.65       682.66
 1343       891.99       683.12
 1344      892.329       682.78
 1345      892.669          682
 1346      893.008       681.22
 1347      893.347       680.64
 1348      893.686       680.64
 1349      894.025       680.76
 1350      894.364       681.02
 1351      894.703       681.08
 1352      895.041       680.92
 1353       895.38       680.52
 1354      895.718       680.44
 1355      896.056       680.02
 1356      896.395       679.86
 1357      896.733        680.6
 1358      897.071       681.62
 1359      897.408       682.58
 1360      897.746       683.64
 1361      898.084       683.98
 1362      898.421       682.92
 1363      898.758       681.46
 1364      899.095       680.36
 1365      899.433       679.68
 1366       899.77       679.06
 1367      900.106       678.88
 1368      900.443       679.26
 1369       900.78        679.2
 1370      901.116       678.62
 1371      901.453        678.4
 1372      901.789       678.94
 1373      902.125       679.48
 1374      902.461       679.88
 1375      902.797       680.76
 1376      903.133        681.7
 1377      903.469       682.16
 1378      903.804       682.46
 1379       904.14       682.72
 1380      904.475       682.62
 1381       904.81       682.08
 1382      905.146       681.66
 1383      905.481        681.6
 1384      905.815       681.58
 1385       906.15       681.58
 1386      906.485       682.04
 1387      906.819       682.44
 1388      907.154       682.58
 1389      907.488       682.56
 1390      907.822       682.06
 1391      908.156        681.5
 1392       908.49        681.8
 1393      908.824       682.36
 1394      909.158       683.14
 1395      909.492       684.22
 1396      909.825       685.18
 1397      910.159       685.08
 1398      910.492       684.28
 1399      910.825       683.56
 1400      911.158       683.14
 1401      911.491       682.62
 1402      911.824       682.24
 1403      912.157       682.08
 1404      912.489       681.82
 1405      912.822       681.38
 1406      913.154        680.7
 1407      913.486       680.08
 1408      913.818       680.22
 1409       914.15       680.34
 1410      914.482        680.2
 1411      914.814        680.9
 1412      915.146       681.96
 1413      915.477       682.56
 1414      915.809       683.12
 1415       916.14       683.72
 1416      916.471       683.84
 1417      916.802       683.44
 1418      917.133       682.88
 1419      917.464       682.56
 1420      917.795       682.48
 1421      918.125       682.24
 1422      918.456       682.04
 1423      918.786       681.74
 1424      919.116        681.4
 1425      919.446       681.18
 1426      919.776       681.04
 1427      920.106       681.22
 1428      920.436        681.4
 1429      920.766       681.44
 1430      921.095       681.64
 1431      921.425       681.82
 1432      921.754       681.22
 1433      922.083        680.4
 1434      922.412        679.4
 1435      922.741       678.18
 1436       923.07       677.46
 1437      923.399       677.74
 1438      923.727       678.66
 1439      924.056       679.68
 1440      924.384       680.84
 1441      924.713       681.88
 1442      925.041        682.5
 1443      925.369        682.6
 1444      925.697       682.86
 1445      926.024       682.88
 1446      926.352       682.34
 1447       926.68       681.62
 1448      927.007       681.26
 1449      927.334       680.84
 1450      927.662       680.36
 1451      927.989       680.02
 1452      928.316        679.6
 1453      928.643       679.22
 1454      928.969       679.14
 1455      929.296       679.02
 1456      929.622       679.02
 1457      929.949        679.3
 1458      930.275        679.7
 1459      930.601       679.88
 1460      930.927        680.4
 1461      931.253          681
 1462      931.579       681.08
 1463      931.905       680.58
 1464       932.23       680.12
 1465      932.556       679.62
 1466      932.881       679.24
 1467      933.206       679.48
 1468      933.531        679.9
 1469      933.856       680.36
 1470      934.181       681.16
 1471      934.506       681.82
 1472       934.83       682.66
 1473      935.155       683.14
 1474      935.479       683.12
 1475      935.803       682.82
 1476      936.128       682.58
 1477      936.452       681.88
 1478      936.775       681.46
 1479      937.099       681.36
 1480      937.423       680.92
 1481      937.746       680.18
 1482       938.07       679.98
 1483      938.393       679.92
 1484      938.716       679.48
 1485      939.039        679.2
 1486      939.362        679.3
 1487      939.685       679.08
 1488      940.008       678.96
 1489      940.331       679.46
 1490      940.653        680.1
 1491      940.975       680.58
 1492      941.298       680.94
 1493       941.62       681.04
 1494      941.942       680.56
 1495      942.264       679.96
 1496      942.585       679.58
 1497      942.907        679.5
 1498      943.229       679.78
 1499       943.55       680.36
 1500      943.871       680.86
 1501      944.192       681.42
 1502      944.513        681.7
 1503      944.834        681.4
 1504      945.155       681.14
 1505      945.476       680.78
 1506      945.796       679.92
 1507      946.117       679.14
 1508      946.437       678.94
 1509      946.757       679.06
 1510      947.078       679.38
 1511      947.398       679.98
 1512      947.717       680.06
 1513      948.037       679.76
 1514      948.357       679.18
 1515      948.676        678.8
 1516      948.996       678.38
 1517      949.315       678.34
 1518      949.634        678.8
 1519      949.953       679.36
 1520      950.272       679.72
 1521      950.591       680.16
 1522      950.909       680.88
 1523      951.228       681.46
 1524      951.546       681.78
 1525      951.865        682.1
 1526      952.183        682.6
 1527      952.501       682.94
 1528      952.819       683.04
 1529      953.137       682.78
 1530      953.454          682
 1531      953.772       681.18
 1532      954.089       680.54
 1533      954.407        679.9
 1534      954.724       679.78
 1535      955.041       680.48
 1536      955.358       681.24
 1537      955.675       681.56
 1538      955.992       681.86
 1539      956.308       681.72
 1540      956.625       681.14
 1541      956.941       680.38
 1542      957.257       679.72
 1543      957.574        679.2
 1544       957.89        679.2
 1545      958.206       679.52
 1546      958.521       680.16
 1547      958.837       681.22
 1548      959.152       681.74
 1549      959.468       682.18
 1550      959.783       682.64
 1551      960.098       682.58
 1552      960.413        682.1
 1553      960.728       681.74
 1554      961.043        681.3
 1555      961.358        680.6
 1556      961.672       680.04
 1557      961.987        680.1
 1558      962.301       680.56
 1559      962.615        680.7
 1560       962.93       680.54
 1561      963.244        680.3
 1562      963.557       679.58
 1563      963.871       678.92
 1564      964.185       678.92
 1565      964.498       679.14
 1566      964.812       679.42
 1567      965.125       679.76
 1568      965.438       679.76
 1569      965.751       679.32
 1570      966.064        679.1
 1571      966.377        679.1
 1572      966.689        679.2
 1573      967.002       679.28
 1574      967.314       679.18
 1575      967.626       678.76
 1576      967.939       678.22
 1577      968.251       677.64
 1578      968.563        677.6
 1579      968.874       678.02
 1580      969.186        678.8
 1581      969.498       679.42
 1582      969.809        679.7
 1583       970.12       679.74
 1584      970.431       679.62
 1585      970.743       679.64
 1586      971.053       679.78
 1587      971.364        679.8
 1588      971.675       680.22
 1589      971.986       680.92
 1590      972.296       681.38
 1591      972.606       682.06
 1592      972.917       682.96
 1593      973.227       683.02
 1594      973.537       682.86
 1595      973.847       682.76
 1596      974.156       682.26
 1597      974.466        682.1
 1598      974.775       682.42
 1599      975.085       682.46
 1600      975.394       682.42
 1601      975.703       682.72
 1602      976.012       682.92
 1603      976.321       683.24
 1604       976.63       683.78
 1605      976.938       684.28
 1606      977.247       684.58
 1607      977.555       684.38
 1608      977.863       683.92
 1609      978.172       683.62
 1610       978.48        683.5
 1611      978.787       683.44
 1612      979.095       684.06
 1613      979.403       684.74
 1614       979.71       684.94
 1615      980.018       684.76
 1616      980.325       684.62
 1617      980.632       684.24
 1618      980.939       684.06
 1619      981.246       684.34
 1620      981.553       684.88
 1621       981.86       684.98
 1622      982.166       684.94
 1623      982.473       684.56
 1624      982.779       683.96
 1625      983.085       683.18
 1626      983.391       682.66
 1627      983.697       682.38
 1628      984.003       682.26
 1629      984.309       682.32
 1630      984.614       682.78
 1631       984.92       683.58
 1632      985.225       684.64
 1633       985.53       685.18
 1634      985.835       685.44
 1635       986.14       685.42
 1636      986.445       684.98
 1637       986.75        684.2
 1638      987.054        683.8
 1639      987.359        683.2
 1640      987.663       682.36
 1641      987.967       681.76
 1642      988.271       681.24
 1643      988.575       680.26
 1644      988.879       679.88
 1645      989.183       680.12
 1646      989.487       680.32
 1647       989.79       680.32
 1648      990.093       680.82
 1649      990.397        681.3
 1650        990.7       681.64
 1651      991.003       682.06
 1652      991.306       682.32
 1653      991.608       682.52
 1654      991.911       682.52
 1655      992.213       682.34
 1656      992.516       682.24
 1657      992.818       682.12
 1658       993.12        682.1
 1659      993.422       682.66
 1660      993.724       683.52
 1661      994.026       683.86
 1662      994.327       684.22
 1663      994.629       684.64
 1664       994.93       684.52
 1665      995.232        683.9
 1666      995.533        683.3
 1667      995.834       682.74
 1668      996.135       681.96
 1669      996.435       681.24
 1670      996.736        680.6
 1671      997.036       680.52
 1672      997.337       681.04
 1673      997.637       681.78
 1674      997.937       682.12
 1675      998.237       682.38
 1676      998.537        682.6
 1677      998.837       682.48
 1678      999.137       681.78
 1679      999.436        681.3
 1680      999.735       680.86
 1681      1000.03       679.96
 1682      1000.33       679.16
 1683      1000.63       679.02
 1684      1000.93       678.84
 1685      1001.23       678.54
 1686      1001.53        678.2
 1687      1001.83        677.8
 1688      1002.13       677.54
 1689      1002.42       677.22
 1690      1002.72        676.9
 1691      1003.02       676.86
 1692      1003.32       676.92
 1693      1003.62       676.72
 1694      1003.91        676.7
 1695      1004.21       677.02
 1696      1004.51       677.52
 1697      1004.81        678.2
 1698       1005.1       679.04
 1699       1005.4       679.52
 1700       1005.7       680.16
 1701      1005.99       681.04
 1702      1006.29       681.56
 1703      1006.59       681.76
 1704      1006.88       682.44
 1705      1007.18       682.58
 1706      1007.48       682.42
 1707      1007.77        682.9
 1708      1008.07       683.84
 1709      1008.36       684.22
 1710      1008.66        684.3
 1711      1008.95        684.1
 1712      1009.25       683.08
 1713      1009.55       681.88
 1714      1009.84       681.46
 1715      1010.14       681.88
 1716      1010.43       682.34
 1717      1010.73        682.7
 1718      1011.02        683.2
 1719      1011.31       684.08
 1720      1011.61       685.16
 1721       1011.9       685.64
 1722       1012.2       685.84
 1723      1012.49        685.5
 1724      1012.79       684.38
 1725      1013.08       682.86
 1726      1013.37       682.06
 1727      1013.67       681.68
 1728      1013.96       681.42
 1729      1014.25       681.18
 1730      1014.55          681
 1731      1014.84       680.74
 1732      1015.13        680.4
 1733      1015.42        680.2
 1734      1015.72       679.66
 1735      1016.01       679.22
 1736       1016.3       679.02
 1737      1016.59       679.24
 1738      1016.89        679.6
 1739      1017.18        680.5
 1740      1017.47       681.48
 1741      1017.76       682.46
 1742      1018.05       683.18
 1743      1018.35       683.74
 1744      1018.64       684.38
 1745      1018.93       684.74
 1746      1019.22       684.66
 1747      1019.51       684.44
 1748       1019.8        683.8
 1749      1020.09          683
 1750      1020.38       682.42
 1751      1020.67       682.04
 1752      1020.96       681.92
 1753      1021.25       682.56
 1754      1021.54       683.28
 1755      1021.83       683.46
 1756      1022.12       683.08
 1757      1022.41        682.3
 1758       1022.7       681.12
 1759      1022.99       679.76
 1760      1023.28       678.78
 1761      1023.57       678.56
 1762      1023.86       679.02
 1763      1024.15       679.88
 1764      1024.44       680.88
 1765      1024.73       681.84
 1766      1025.02       682.34
 1767       1025.3       682.62
 1768      1025.59       682.38
 1769      1025.88        681.9
 1770      1026.17       681.58
 1771      1026.46       681.52
 1772      1026.74       681.14
 1773      1027.03       680.86
 1774      1027.32       680.74
 1775      1027.61       680.94
 1776      1027.89       681.66
 1777      1028.18       682.44
 1778      1028.47       682.82
 1779      1028.76       682.94
 1780      1029.04        682.8
 1781      1029.33       682.46
 1782      1029.62       682.48
 1783       1029.9       682.84
 1784      1030.19       683.18
 1785      1030.47       682.78
 1786      1030.76       681.84
 1787      1031.05       680.64
 1788      1031.33       679.62
 1789      1031.62       679.08
 1790       1031.9       679.38
 1791      1032.19       680.14
 1792      1032.47       681.14
 1793      1032.76       682.18
 1794      1033.04       682.96
 1795      1033.33       683.24
 1796      1033.61       683.02
 1797       1033.9       682.28
 1798      1034.18       681.42
 1799      1034.47       680.66
 1800      1034.75       679.62
 1801      1035.04       678.78
 1802      1035.32       678.16
 1803       1035.6       677.76
 1804      1035.89          678
 1805      1036.17       678.66
 1806      1036.45       679.24
 1807      1036.74       679.98
 1808      1037.02       680.44
 1809       1037.3       680.38
 1810      1037.59       680.38
 1811      1037.87        680.5
 1812      1038.15       680.44
 1813      1038.44       680.56
 1814      1038.72       680.96
 1815         1039       681.64
 1816      1039.28       682.34
 1817      1039.56       682.64
 1818      1039.85       682.58
 1819      1040.13       682.14
 1820      1040.41       681.52
 1821      1040.69       680.84
 1822      1040.97       680.48
 1823      1041.25       680.72
 1824      1041.54        681.1
 1825      1041.82       681.42
 1826       1042.1       681.78
 1827      1042.38        681.8
 1828      1042.66       681.18
 1829      1042.94       680.68
 1830      1043.22       680.52
 1831       1043.5       680.38
 1832      1043.78       680.34
 1833      1044.06       680.28
 1834      1044.34       679.98
 1835      1044.62       679.72
 1836       1044.9       679.72
 1837      1045.18       680.34
 1838      1045.46       681.14
 1839      1045.74       681.48
 1840      1046.02       681.26
 1841       1046.3       680.88
 1842      1046.58       680.46
 1843      1046.85        680.1
 1844      1047.13          680
 1845      1047.41       680.28
 1846      1047.69       680.58
 1847      1047.97       680.62
 1848      1048.25       680.64
 1849      1048.52       680.94
 1850       1048.8       681.34
 1851      1049.08       681.54
 1852      1049.36       681.84
 1853      1049.63       682.22
 1854      1049.91       682.24
 1855      1050.19       681.88
 1856      1050.47       681.86
 1857      1050.74       681.96
 1858      1051.02        682.1
 1859       1051.3       681.82
 1860      1051.57       681.02
 1861      1051.85        679.8
 1862      1052.13        678.6
 1863       1052.4       677.88
 1864      1052.68       677.66
 1865      1052.95       678.02
 1866      1053.23       678.72
 1867      1053.51       679.36
 1868      1053.78       679.84
 1869      1054.06       680.26
 1870      1054.33       680.46
 1871      1054.61       680.34
 1872      1054.88       680.02
 1873      1055.16       679.32
 1874      1055.43       678.66
 1875      1055.71        677.9
 1876      1055.98       677.36
 1877      1056.25       676.94
 1878      1056.53        676.7
 1879       1056.8       676.66
 1880      1057.08       677.08
 1881      1057.35        677.5
 1882      1057.62        678.1
 1883       1057.9       678.72
 1884      1058.17        679.5
 1885      1058.45        680.1
 1886      1058.72        680.6
 1887      1058.99       680.94
 1888      1059.26       681.18
 1889      1059.54       680.64
 1890      1059.81       679.98
 1891      1060.08        679.4
 1892      1060.35       678.74
 1893      1060.63       678.26
 1894       1060.9       678.46
 1895      1061.17       678.76
 1896      1061.44        678.9
 1897      1061.71       678.86
 1898      1061.99       678.64
 1899      1062.26       678.44
 1900      1062.53       678.12
 1901       1062.8        678.2
 1902      1063.07       678.54
 1903      1063.34        678.7
 1904      1063.61       679.34
 1905      1063.88       680.44
 1906      1064.15       680.74
 1907      1064.42       680.86
 1908       1064.7       681.48
 1909      1064.97       681.56
 1910      1065.24       681.34
 1911      1065.51       681.72
 1912      1065.78       682.24
 1913      1066.04          682
 1914      1066.31       681.38
 1915      1066.58       680.76
 1916      1066.85       680.02
 1917      1067.12       679.06
 1918      1067.39       678.36
 1919      1067.66       678.32
 1920      1067.93       678.28
 1921       1068.2       678.22
 1922      1068.47       678.68
 1923      1068.73       679.42
 1924         1069        679.7
 1925      1069.27       679.94
 1926      1069.54       681.02
 1927      1069.81          682
 1928      1070.07       682.72
 1929      1070.34       683.84
 1930      1070.61       684.54
 1931      1070.88        684.4
 1932      1071.14       683.92
 1933      1071.41       683.06
 1934      1071.68       681.66
 1935      1071.94          681
 1936      1072.21       680.52
 1937      1072.48       680.26
 1938      1072.74       680.66
 1939      1073.01       680.62
 1940      1073.28       679.76
 1941      1073.54       679.04
 1942      1073.81       678.58
 1943      1074.07       677.88
 1944      1074.34       677.88
 1945       1074.6       678.36
 1946      1074.87       678.92
 1947      1075.13        679.2
 1948       1075.4       679.44
 1949      1075.66        679.9
 1950      1075.93       680.66
 1951      1076.19       681.26
 1952      1076.46       681.68
 1953      1076.72       681.66
 1954      1076.99       680.94
 1955      1077.25       680.32
 1956      1077.52       679.84
 1957      1077.78       679.48
 1958      1078.04       679.78
 1959      1078.31       680.56
 1960      1078.57       681.02
 1961      1078.83       681.14
 1962       1079.1        681.1
 1963      1079.36       680.94
 1964      1079.62       680.84
 1965      1079.89       680.96
 1966      1080.15       681.22
 1967      1080.41       681.52
 1968      1080.67       681.48
 1969      1080.94       681.16
 1970       1081.2       680.38
 1971      1081.46       679.38
 1972      1081.72        678.7
 1973      1081.98       678.56
 1974      1082.24       678.88
 1975      1082.51        679.3
 1976      1082.77       679.94
 1977      1083.03       680.66
 1978      1083.29        681.3
 1979      1083.55       681.56
 1980      1083.81       681.38
 1981      1084.07       680.98
 1982      1084.33        680.3
 1983      1084.59       679.56
 1984      1084.85          679
 1985      1085.11        678.9
 1986      1085.37        678.7
 1987      1085.63       678.24
 1988      1085.89        677.8
 1989      1086.15       677.38
 1990      1086.41       676.96
 1991      1086.67       677.16
 1992      1086.93       678.16
 1993      1087.19       678.88
 1994      1087.45       679.44
 1995      1087.71       680.46
 1996      1087.97       681.24
 1997      1088.23       681.28
 1998      1088.48        681.6
 1999      1088.74       682.08
 2000         1089       682.08
 2001      1089.26       681.94
 2002      1089.52       682.08
 2003      1089.77       682.32
 2004      1090.03       682.02
 2005      1090.29       681.54
 2006      1090.55       681.26
 2007       1090.8        680.6
 2008      1091.06       680.28
 2009      1091.32       680.18
 2010      1091.57       680.26
 2011      1091.83       680.56
 2012      1092.09       681.24
 2013      1092.34        681.5
 2014       1092.6       682.26
 2015      1092.86       682.58
 2016      1093.11        682.4
 2017      1093.37       682.24
 2018      1093.62        681.9
 2019      1093.88       681.12
 2020      1094.13       680.48
 2021      1094.39       679.84
 2022      1094.65       679.34
 2023       1094.9       678.94
 2024      1095.16       678.76
 2025      1095.41       678.98
 2026      1095.66        679.5
 2027      1095.92       680.04
 2028      1096.17        680.4
 2029      1096.43       680.86
 2030      1096.68        681.2
 2031      1096.94       681.36
 2032      1097.19       681.28
 2033      1097.44       681.24
 2034       1097.7       681.14
 2035      1097.95       681.36
 2036       1098.2       681.46
 2037      1098.46       681.52
 2038      1098.71        682.1
 2039      1098.96       682.52
 2040      1099.22       682.48
 2041      1099.47        682.5
 2042      1099.72       682.58
 2043      1099.97       682.12
 2044      1100.23       681.54
 2045      1100.48       681.82
 2046      1100.73        681.8
 2047      1100.98      681.667
