scansci Spectrometer Data File
--- Measurement Setting ---
Type: Sample Spectrum
Date: Mon Oct 16 18:08:54 2023
User: (Reserved by scansci)
Serial: (Reserved by scansci)
Channel: No. 11
Integration Time: 1
Average: 10
Boxcar: 2
Electrical Dark: No-corrected
Time Normalize: (Reserved by scansci)
Dual-beam: (Reserved by scansci)
Reference Ch: (Reserved by scansci)
--- Measurement Data ---
Pixel   Wavelength   Intensity
    0        162.5      587.167
    1      162.985      587.575
    2      163.469        587.9
    3      163.954       588.64
    4      164.439       589.06
    5      164.923       589.08
    6      165.408       589.08
    7      165.892       589.16
    8      166.377       589.26
    9      166.861        589.3
   10      167.345        589.1
   11       167.83        588.7
   12      168.314       587.54
   13      168.798       586.02
   14      169.282       585.14
   15      169.766       584.78
   16       170.25       584.68
   17      170.734       585.68
   18      171.218       587.16
   19      171.702        587.9
   20      172.185       588.62
   21      172.669        589.2
   22      173.153       588.74
   23      173.636        588.3
   24       174.12       588.42
   25      174.603       588.44
   26      175.087       588.94
   27       175.57       589.86
   28      176.053        590.5
   29      176.537       591.32
   30       177.02        592.2
   31      177.503       592.74
   32      177.986       593.68
   33      178.469       595.08
   34      178.952        595.8
   35      179.435       595.92
   36      179.918       595.32
   37      180.401       594.56
   38      180.884        593.9
   39      181.366       593.72
   40      181.849        594.5
   41      182.332       596.28
   42      182.814       598.06
   43      183.297       599.42
   44      183.779       600.64
   45      184.262       601.24
   46      184.744       600.98
   47      185.226       600.32
   48      185.708       599.36
   49      186.191        598.1
   50      186.673       597.22
   51      187.155       597.18
   52      187.637       597.48
   53      188.119       597.56
   54        188.6       597.68
   55      189.082       598.24
   56      189.564        598.7
   57      190.046       599.06
   58      190.527       599.82
   59      191.009       600.46
   60      191.491       600.28
   61      191.972       599.78
   62      192.454       599.58
   63      192.935        599.4
   64      193.416        599.5
   65      193.897       599.56
   66      194.379       599.68
   67       194.86       600.08
   68      195.341       600.36
   69      195.822       600.22
   70      196.303        600.9
   71      196.784       601.82
   72      197.265       602.24
   73      197.746       602.76
   74      198.226        603.8
   75      198.707       604.16
   76      199.188       603.66
   77      199.668        602.8
   78      200.149       602.06
   79      200.629       601.42
   80       201.11       601.04
   81       201.59       601.46
   82       202.07          602
   83       202.55        602.5
   84      203.031       602.64
   85      203.511       602.18
   86      203.991       602.18
   87      204.471       602.38
   88      204.951       602.36
   89      205.431        602.8
   90       205.91       603.92
   91       206.39       604.22
   92       206.87        604.2
   93      207.349       604.18
   94      207.829        603.6
   95      208.309       602.76
   96      208.788       602.18
   97      209.267       601.88
   98      209.747       601.64
   99      210.226       602.08
  100      210.705       602.66
  101      211.185       602.66
  102      211.664        602.3
  103      212.143       601.92
  104      212.622        601.3
  105      213.101       600.74
  106      213.579        600.5
  107      214.058       600.54
  108      214.537       600.76
  109      215.016          601
  110      215.494       601.14
  111      215.973        600.6
  112      216.452       599.96
  113       216.93       599.84
  114      217.408       599.68
  115      217.887       599.06
  116      218.365       598.98
  117      218.843       598.98
  118      219.321       598.22
  119      219.799          598
  120      220.278       598.28
  121      220.755       598.14
  122      221.233       598.02
  123      221.711       598.36
  124      222.189       598.08
  125      222.667        597.5
  126      223.144       597.56
  127      223.622       597.88
  128        224.1       598.36
  129      224.577       598.62
  130      225.055       599.08
  131      225.532       599.94
  132      226.009       600.38
  133      226.486       599.76
  134      226.964       598.76
  135      227.441       597.74
  136      227.918       596.82
  137      228.395        596.5
  138      228.872       596.98
  139      229.349        597.9
  140      229.826        599.1
  141      230.302       599.96
  142      230.779        600.4
  143      231.256       600.74
  144      231.732       600.98
  145      232.209       600.76
  146      232.685       600.34
  147      233.162       599.64
  148      233.638       598.62
  149      234.114       598.06
  150       234.59       598.02
  151      235.066       598.32
  152      235.543       598.76
  153      236.019       599.02
  154      236.495       598.62
  155       236.97       597.82
  156      237.446       596.88
  157      237.922          596
  158      238.398       595.74
  159      238.873       596.66
  160      239.349       597.84
  161      239.824       598.26
  162        240.3       598.52
  163      240.775          599
  164      241.251       598.82
  165      241.726       597.74
  166      242.201       597.24
  167      242.676       597.52
  168      243.151       597.68
  169      243.626       597.36
  170      244.101       597.28
  171      244.576       597.76
  172      245.051       598.04
  173      245.526       597.94
  174          246       597.76
  175      246.475       597.68
  176       246.95       597.38
  177      247.424        597.3
  178      247.899        597.4
  179      248.373        597.5
  180      248.847       597.68
  181      249.321       597.66
  182      249.796       597.36
  183       250.27        597.6
  184      250.744       598.82
  185      251.218       599.88
  186      251.692       600.82
  187      252.166       601.38
  188      252.639       601.22
  189      253.113       600.52
  190      253.587        599.8
  191       254.06       598.86
  192      254.534       597.62
  193      255.007        596.6
  194      255.481       596.18
  195      255.954       596.58
  196      256.427       597.04
  197      256.901       597.58
  198      257.374       598.04
  199      257.847       597.58
  200       258.32       596.44
  201      258.793        595.6
  202      259.266       595.22
  203      259.739       594.76
  204      260.211       594.36
  205      260.684       594.42
  206      261.157       594.66
  207      261.629       595.04
  208      262.102       595.94
  209      262.574       597.36
  210      263.046       598.44
  211      263.519       599.14
  212      263.991       599.36
  213      264.463       598.96
  214      264.935        598.3
  215      265.407       597.76
  216      265.879       597.26
  217      266.351       596.82
  218      266.823        596.5
  219      267.295          596
  220      267.766       595.72
  221      268.238       595.82
  222       268.71       596.18
  223      269.181       596.36
  224      269.653       596.46
  225      270.124       596.08
  226      270.595        595.7
  227      271.066       595.48
  228      271.538       595.16
  229      272.009        594.6
  230       272.48       594.14
  231      272.951       593.86
  232      273.422        593.6
  233      273.892       593.54
  234      274.363       594.08
  235      274.834        595.2
  236      275.305       595.54
  237      275.775       595.76
  238      276.246        596.3
  239      276.716       596.68
  240      277.186        596.6
  241      277.657       597.08
  242      278.127       597.98
  243      278.597       598.66
  244      279.067       599.12
  245      279.537       599.26
  246      280.007       598.82
  247      280.477       597.92
  248      280.947       596.72
  249      281.417        595.2
  250      281.886       594.22
  251      282.356       593.84
  252      282.825       593.26
  253      283.295       593.02
  254      283.764       593.58
  255      284.234        594.1
  256      284.703       594.18
  257      285.172       594.54
  258      285.641       594.74
  259       286.11        594.6
  260      286.579       594.44
  261      287.048        594.5
  262      287.517       594.08
  263      287.986       593.66
  264      288.454       593.96
  265      288.923       594.34
  266      289.392       594.66
  267       289.86        595.4
  268      290.329       596.34
  269      290.797       597.16
  270      291.265       598.06
  271      291.734       598.82
  272      292.202       599.34
  273       292.67       599.18
  274      293.138       598.34
  275      293.606       597.22
  276      294.074       595.84
  277      294.541       594.78
  278      295.009       594.96
  279      295.477        595.6
  280      295.944       595.98
  281      296.412       596.56
  282      296.879       597.26
  283      297.347       597.26
  284      297.814       596.94
  285      298.281       597.08
  286      298.749       596.94
  287      299.216       596.16
  288      299.683        596.1
  289       300.15       596.92
  290      300.616       597.36
  291      301.083        597.1
  292       301.55       596.76
  293      302.017       596.08
  294      302.483       594.32
  295       302.95       592.96
  296      303.416       593.48
  297      303.883       594.48
  298      304.349        594.9
  299      304.815       595.24
  300      305.281       595.18
  301      305.748       594.14
  302      306.214       592.78
  303       306.68       591.44
  304      307.146       590.58
  305      307.611       590.04
  306      308.077        589.6
  307      308.543        589.6
  308      309.008       590.06
  309      309.474          591
  310      309.939       592.48
  311      310.405       594.98
  312       310.87       598.32
  313      311.335       602.16
  314        311.8       605.84
  315      312.266       608.72
  316      312.731       609.86
  317      313.196       609.16
  318       313.66       606.78
  319      314.125       603.38
  320       314.59       600.08
  321      315.055       597.34
  322      315.519       595.08
  323      315.984       593.48
  324      316.448       592.22
  325      316.913       591.04
  326      317.377       590.08
  327      317.841       589.24
  328      318.305       588.98
  329      318.769       589.14
  330      319.233       589.18
  331      319.697       589.56
  332      320.161       590.42
  333      320.625        591.2
  334      321.089        592.2
  335      321.552       593.36
  336      322.016        593.8
  337      322.479       593.78
  338      322.943        593.2
  339      323.406       591.76
  340      323.869       590.86
  341      324.333       590.84
  342      324.796       590.86
  343      325.259       590.82
  344      325.722       590.96
  345      326.185       590.72
  346      326.647       590.22
  347       327.11       590.16
  348      327.573        590.4
  349      328.035       590.38
  350      328.498       590.06
  351       328.96       589.56
  352      329.423        589.1
  353      329.885       589.08
  354      330.347       590.18
  355       330.81       591.32
  356      331.272        592.2
  357      331.734       592.74
  358      332.196       592.86
  359      332.657       592.44
  360      333.119        592.4
  361      333.581       592.86
  362      334.043       593.54
  363      334.504        594.4
  364      334.966        595.2
  365      335.427       595.26
  366      335.888        595.1
  367       336.35       595.14
  368      336.811       594.82
  369      337.272       593.92
  370      337.733       593.22
  371      338.194       593.18
  372      338.655        592.9
  373      339.115       592.54
  374      339.576       592.98
  375      340.037       593.74
  376      340.497       593.76
  377      340.958       593.42
  378      341.418       593.36
  379      341.879       592.94
  380      342.339       592.44
  381      342.799        592.7
  382      343.259       593.64
  383      343.719       594.52
  384      344.179        595.2
  385      344.639        595.9
  386      345.099       596.32
  387      345.559       596.54
  388      346.018       596.86
  389      346.478       597.06
  390      346.937       596.78
  391      347.397       596.02
  392      347.856       595.02
  393      348.315       594.64
  394      348.774        595.1
  395      349.234       595.84
  396      349.693        596.5
  397      350.152       597.62
  398       350.61       598.54
  399      351.069        598.8
  400      351.528       598.66
  401      351.987       598.74
  402      352.445       598.72
  403      352.904       598.22
  404      353.362       597.94
  405       353.82       598.44
  406      354.279       598.98
  407      354.737       599.18
  408      355.195       599.62
  409      355.653       600.42
  410      356.111       601.34
  411      356.569        602.1
  412      357.027       602.36
  413      357.484       601.94
  414      357.942       601.36
  415      358.399       601.18
  416      358.857       601.64
  417      359.314       602.76
  418      359.772        604.3
  419      360.229       605.56
  420      360.686       605.94
  421      361.143       606.14
  422        361.6       607.12
  423      362.057        611.9
  424      362.514       626.76
  425      362.971       657.84
  426      363.427       707.16
  427      363.884       770.88
  428       364.34       836.46
  429      364.797        887.3
  430      365.253        910.2
  431      365.709       900.02
  432      366.166        862.7
  433      366.622       810.96
  434      367.078       757.82
  435      367.534        712.9
  436       367.99       680.36
  437      368.445       658.08
  438      368.901       643.92
  439      369.357       635.34
  440      369.812       629.94
  441      370.268       626.48
  442      370.723       624.48
  443      371.179       623.46
  444      371.634       623.32
  445      372.089       623.96
  446      372.544       625.02
  447      372.999       626.06
  448      373.454       627.12
  449      373.909       628.32
  450      374.364       629.58
  451      374.818        631.1
  452      375.273       633.08
  453      375.727        635.4
  454      376.182       638.12
  455      376.636       641.12
  456       377.09       643.88
  457      377.545       647.06
  458      377.999       650.78
  459      378.453       653.94
  460      378.907       656.62
  461      379.361       659.76
  462      379.814        662.6
  463      380.268        664.8
  464      380.722       667.26
  465      381.175       669.74
  466      381.629       671.54
  467      382.082       673.06
  468      382.535       674.66
  469      382.989        676.3
  470      383.442       678.28
  471      383.895       680.68
  472      384.348        683.2
  473      384.801       685.32
  474      385.253        687.2
  475      385.706        689.2
  476      386.159       691.48
  477      386.611       693.84
  478      387.064       696.56
  479      387.516       699.54
  480      387.968       702.28
  481      388.421       705.44
  482      388.873       709.92
  483      389.325       714.44
  484      389.777        718.6
  485      390.229       723.18
  486      390.681       726.88
  487      391.132       728.84
  488      391.584       730.38
  489      392.035       731.88
  490      392.487       733.02
  491      392.938       734.78
  492       393.39       737.38
  493      393.841       740.68
  494      394.292       744.34
  495      394.743       747.84
  496      395.194       751.38
  497      395.645       755.18
  498      396.096       758.76
  499      396.546       762.52
  500      396.997       767.42
  501      397.448       772.66
  502      397.898       777.38
  503      398.349       782.08
  504      398.799        787.1
  505      399.249       791.82
  506      399.699       796.24
  507      400.149       801.36
  508      400.599        807.9
  509      401.049       819.62
  510      401.499       856.82
  511      401.949       976.14
  512      402.398       1265.2
  513      402.848      1785.08
  514      403.297      2491.34
  515      403.747      3239.32
  516      404.196       3850.6
  517      404.645      4146.58
  518      405.094       4034.6
  519      405.543      3596.54
  520      405.992      3013.02
  521      406.441      2440.86
  522       406.89      1985.34
  523      407.339       1680.3
  524      407.787      1484.22
  525      408.236         1343
  526      408.684       1228.2
  527      409.132       1131.9
  528      409.581      1055.86
  529      410.029      1001.54
  530      410.477       967.56
  531      410.925       948.48
  532      411.373       937.86
  533      411.821        931.4
  534      412.269        928.5
  535      412.716       928.98
  536      413.164       931.56
  537      413.611       935.46
  538      414.059       940.28
  539      414.506        945.9
  540      414.953       950.96
  541        415.4        954.6
  542      415.847       957.48
  543      416.294        960.5
  544      416.741       962.76
  545      417.188       965.04
  546      417.635       969.42
  547      418.081       975.86
  548      418.528          983
  549      418.974       991.06
  550      419.421        999.7
  551      419.867      1008.72
  552      420.313      1018.56
  553      420.759      1030.18
  554      421.205      1043.24
  555      421.651      1056.76
  556      422.097      1070.18
  557      422.543      1083.98
  558      422.989      1097.52
  559      423.434      1110.58
  560       423.88      1123.82
  561      424.325      1137.42
  562       424.77       1150.8
  563      425.216      1164.34
  564      425.661      1179.54
  565      426.106      1196.32
  566      426.551       1214.4
  567      426.996      1233.76
  568       427.44      1254.16
  569      427.885      1274.96
  570       428.33      1296.42
  571      428.774       1319.1
  572      429.219      1342.14
  573      429.663      1364.66
  574      430.107      1387.72
  575      430.551       1410.9
  576      430.996      1434.08
  577       431.44      1460.92
  578      431.883      1496.68
  579      432.327      1557.16
  580      432.771      1728.94
  581      433.215       2230.9
  582      433.658      3368.38
  583      434.102      5316.86
  584      434.545       7893.8
  585      434.988      10615.6
  586      435.431      12860.4
  587      435.875      13939.4
  588      436.318      13528.1
  589      436.761      11900.6
  590      437.203      9647.62
  591      437.646      7310.18
  592      438.089       5356.2
  593      438.531      3986.12
  594      438.974      3123.08
  595      439.416      2594.54
  596      439.859       2275.2
  597      440.301      2084.26
  598      440.743      1969.38
  599      441.185      1902.76
  600      441.627      1866.74
  601      442.069      1846.42
  602       442.51       1833.1
  603      442.952      1822.36
  604      443.394      1811.94
  605      443.835       1800.5
  606      444.277       1789.3
  607      444.718      1780.28
  608      445.159      1775.98
  609        445.6      1777.08
  610      446.041      1781.56
  611      446.482      1789.06
  612      446.923      1801.38
  613      447.364       1816.1
  614      447.804      1827.84
  615      448.245      1838.64
  616      448.685      1848.86
  617      449.126      1853.44
  618      449.566      1854.14
  619      450.006      1854.92
  620      450.447      1853.72
  621      450.887      1850.98
  622      451.326      1849.64
  623      451.766      1849.18
  624      452.206      1848.68
  625      452.646      1848.18
  626      453.085      1847.48
  627      453.525      1848.14
  628      453.964      1851.44
  629      454.403      1854.28
  630      454.843      1856.92
  631      455.282      1860.36
  632      455.721       1863.5
  633       456.16      1864.84
  634      456.599      1865.68
  635      457.037      1866.92
  636      457.476      1869.44
  637      457.915       1871.2
  638      458.353      1870.42
  639      458.791      1870.04
  640       459.23       1870.1
  641      459.668      1868.38
  642      460.106      1867.56
  643      460.544      1869.96
  644      460.982      1873.82
  645       461.42      1877.28
  646      461.857       1878.1
  647      462.295       1876.8
  648      462.733      1873.82
  649       463.17      1867.04
  650      463.607       1858.5
  651      464.045      1852.18
  652      464.482      1847.38
  653      464.919       1843.5
  654      465.356      1841.02
  655      465.793      1839.34
  656       466.23      1838.16
  657      466.666      1837.06
  658      467.103      1834.96
  659      467.539      1832.36
  660      467.976      1829.62
  661      468.412      1825.02
  662      468.848      1817.32
  663      469.284      1808.12
  664       469.72      1799.56
  665      470.156      1791.04
  666      470.592      1784.06
  667      471.028      1779.78
  668      471.464      1775.82
  669      471.899      1771.44
  670      472.335      1767.16
  671       472.77      1761.32
  672      473.205      1754.12
  673      473.641      1748.06
  674      474.076       1742.5
  675      474.511      1736.16
  676      474.946      1730.32
  677       475.38      1724.78
  678      475.815      1717.64
  679       476.25      1710.44
  680      476.684       1705.1
  681      477.119      1701.54
  682      477.553       1700.2
  683      477.987      1701.68
  684      478.421       1705.7
  685      478.856         1712
  686      479.289       1718.5
  687      479.723      1724.48
  688      480.157      1732.58
  689      480.591      1743.38
  690      481.024      1756.96
  691      481.458      1775.96
  692      481.891       1802.4
  693      482.324      1834.72
  694      482.758      1875.16
  695      483.191      1926.26
  696      483.624      1986.88
  697      484.057      2054.92
  698      484.489      2131.96
  699      484.922      2212.82
  700      485.355      2290.04
  701      485.787      2360.78
  702       486.22      2420.12
  703      486.652      2460.04
  704      487.084      2478.72
  705      487.516      2480.56
  706      487.948      2468.72
  707       488.38      2447.48
  708      488.812      2418.14
  709      489.244      2387.04
  710      489.676      2357.68
  711      490.107       2330.5
  712      490.539      2305.42
  713       490.97      2283.62
  714      491.401      2259.86
  715      491.832      2229.72
  716      492.263      2194.34
  717      492.694      2154.84
  718      493.125      2114.54
  719      493.556      2074.58
  720      493.987      2034.88
  721      494.417       1996.6
  722      494.848      1961.64
  723      495.278      1930.26
  724      495.708      1902.62
  725      496.139      1879.36
  726      496.569      1858.08
  727      496.999      1837.26
  728      497.429       1817.5
  729      497.858      1796.18
  730      498.288      1771.76
  731      498.718         1746
  732      499.147      1717.94
  733      499.577       1687.2
  734      500.006      1659.06
  735      500.435      1634.36
  736      500.864      1610.62
  737      501.293      1590.02
  738      501.722       1571.5
  739      502.151       1553.7
  740       502.58      1538.22
  741      503.008         1524
  742      503.437      1509.82
  743      503.865       1496.9
  744      504.293      1485.32
  745      504.722       1474.1
  746       505.15      1464.88
  747      505.578      1457.18
  748      506.006       1450.1
  749      506.434      1444.18
  750      506.861      1440.18
  751      507.289       1436.8
  752      507.716      1433.46
  753      508.144      1430.48
  754      508.571       1426.5
  755      508.998      1421.92
  756      509.425      1417.84
  757      509.852       1413.8
  758      510.279      1409.56
  759      510.706       1406.5
  760      511.133      1405.04
  761       511.56      1403.66
  762      511.986      1402.68
  763      512.412      1402.62
  764      512.839      1401.58
  765      513.265      1397.34
  766      513.691       1392.1
  767      514.117      1386.64
  768      514.543      1380.26
  769      514.969      1374.74
  770      515.395      1370.72
  771       515.82         1367
  772      516.246       1363.2
  773      516.671      1359.86
  774      517.096      1356.08
  775      517.522      1352.04
  776      517.947      1347.82
  777      518.372      1344.26
  778      518.797       1340.5
  779      519.222      1336.42
  780      519.646      1332.42
  781      520.071       1328.2
  782      520.495      1324.42
  783       520.92       1320.9
  784      521.344      1316.38
  785      521.768      1311.74
  786      522.192      1307.82
  787      522.616      1303.12
  788       523.04       1298.3
  789      523.464       1294.9
  790      523.888      1291.24
  791      524.311      1287.54
  792      524.735      1285.18
  793      525.158      1283.76
  794      525.581      1282.96
  795      526.005      1283.28
  796      526.428      1284.24
  797      526.851      1284.54
  798      527.274      1283.66
  799      527.696      1282.14
  800      528.119      1280.58
  801      528.542       1278.5
  802      528.964      1276.22
  803      529.386      1275.08
  804      529.809      1275.08
  805      530.231      1275.62
  806      530.653      1278.02
  807      531.075      1283.26
  808      531.497       1290.4
  809      531.918      1299.08
  810       532.34       1308.4
  811      532.761      1317.42
  812      533.183       1325.9
  813      533.604      1333.52
  814      534.025      1340.54
  815      534.447      1348.72
  816      534.868      1358.64
  817      535.289      1373.54
  818      535.709      1396.08
  819       536.13      1427.14
  820      536.551      1467.52
  821      536.971      1517.14
  822      537.392      1575.38
  823      537.812       1645.6
  824      538.232      1737.28
  825      538.652       1856.1
  826      539.072      2011.84
  827      539.492       2218.7
  828      539.912      2483.64
  829      540.331      2801.78
  830      540.751      3163.68
  831       541.17      3541.16
  832       541.59       3885.5
  833      542.009      4160.28
  834      542.428      4348.54
  835      542.847       4462.1
  836      543.266      4573.28
  837      543.685      4832.22
  838      544.104      5404.08
  839      544.522      6385.92
  840      544.941      7691.36
  841      545.359       9046.8
  842      545.778      10109.4
  843      546.196      10561.7
  844      546.614      10226.9
  845      547.032       9215.3
  846       547.45      7847.72
  847      547.867      6428.96
  848      548.285      5189.06
  849      548.703      4253.08
  850       549.12      3604.82
  851      549.538      3155.94
  852      549.955      2837.04
  853      550.372      2598.44
  854      550.789      2412.08
  855      551.206      2264.92
  856      551.623      2145.16
  857      552.039      2044.08
  858      552.456       1959.3
  859      552.873      1885.22
  860      553.289       1818.6
  861      553.705      1759.28
  862      554.121      1705.94
  863      554.537      1658.16
  864      554.953      1615.28
  865      555.369      1577.08
  866      555.785      1543.88
  867      556.201      1515.86
  868      556.616      1492.04
  869      557.032      1474.44
  870      557.447       1462.7
  871      557.862      1455.12
  872      558.277       1450.9
  873      558.692      1448.82
  874      559.107         1446
  875      559.522      1443.18
  876      559.937       1441.9
  877      560.351      1440.18
  878      560.766       1438.6
  879       561.18      1437.68
  880      561.595      1435.92
  881      562.009       1432.3
  882      562.423      1427.94
  883      562.837      1423.26
  884       563.25      1419.58
  885      563.664      1417.34
  886      564.078      1415.34
  887      564.491      1413.18
  888      564.905      1409.86
  889      565.318      1404.56
  890      565.731      1397.56
  891      566.144       1390.8
  892      566.557      1384.94
  893       566.97      1379.48
  894      567.383       1374.7
  895      567.795      1370.36
  896      568.208      1366.08
  897       568.62      1361.96
  898      569.033       1358.7
  899      569.445      1355.24
  900      569.857      1351.98
  901      570.269      1349.74
  902      570.681      1347.94
  903      571.093       1348.1
  904      571.504       1351.1
  905      571.916      1355.56
  906      572.327      1361.16
  907      572.739       1367.6
  908       573.15      1373.86
  909      573.561      1381.26
  910      573.972       1397.6
  911      574.383      1440.68
  912      574.794      1539.52
  913      575.204      1717.36
  914      575.615      1972.72
  915      576.025       2276.9
  916      576.436       2584.5
  917      576.846      2847.62
  918      577.256      3038.24
  919      577.666       3156.8
  920      578.076      3221.08
  921      578.486      3242.24
  922      578.896      3211.82
  923      579.305      3112.72
  924      579.715      2939.06
  925      580.124      2707.84
  926      580.533      2455.46
  927      580.942       2225.4
  928      581.351      2050.58
  929       581.76      1941.86
  930      582.169       1887.8
  931      582.578      1868.38
  932      582.986      1867.12
  933      583.395         1870
  934      583.803      1869.22
  935      584.212      1863.12
  936       584.62       1851.3
  937      585.028      1836.44
  938      585.436      1825.08
  939      585.843      1820.94
  940      586.251      1821.34
  941      586.659      1821.02
  942      587.066      1816.96
  943      587.474      1802.98
  944      587.881      1774.02
  945      588.288      1732.28
  946      588.695       1684.1
  947      589.102      1634.36
  948      589.509      1587.86
  949      589.915      1549.34
  950      590.322       1521.5
  951      590.728      1505.64
  952      591.135      1499.12
  953      591.541      1499.26
  954      591.947      1503.76
  955      592.353      1508.98
  956      592.759      1509.54
  957      593.165      1501.38
  958      593.571      1482.26
  959      593.976      1453.12
  960      594.382      1417.24
  961      594.787      1378.62
  962      595.192      1340.84
  963      595.597      1307.64
  964      596.002      1281.42
  965      596.407      1262.04
  966      596.812       1248.5
  967      597.217      1240.02
  968      597.621      1237.98
  969      598.026      1241.28
  970       598.43       1246.7
  971      598.834      1252.08
  972      599.238      1255.12
  973      599.642      1251.06
  974      600.046      1238.22
  975       600.45      1218.66
  976      600.854      1194.62
  977      601.257      1169.74
  978      601.661       1146.6
  979      602.064      1126.32
  980      602.467      1109.48
  981       602.87      1095.96
  982      603.273       1085.2
  983      603.676      1078.22
  984      604.079      1074.88
  985      604.481      1072.96
  986      604.884      1071.76
  987      605.286      1071.44
  988      605.689      1072.08
  989      606.091      1074.82
  990      606.493      1081.46
  991      606.895      1093.68
  992      607.297      1113.68
  993      607.698       1143.8
  994        608.1       1190.1
  995      608.501      1267.88
  996      608.903      1398.06
  997      609.304      1596.16
  998      609.705      1864.96
  999      610.106       2185.6
 1000      610.507      2510.26
 1001      610.908      2777.46
 1002      611.308      2938.24
 1003      611.709       2966.2
 1004      612.109      2867.76
 1005       612.51      2684.86
 1006       612.91      2465.84
 1007       613.31      2247.24
 1008       613.71       2055.4
 1009       614.11      1898.16
 1010       614.51       1766.7
 1011      614.909      1654.08
 1012      615.309      1553.92
 1013      615.708      1462.54
 1014      616.108      1380.88
 1015      616.507      1309.72
 1016      616.906      1248.42
 1017      617.305      1199.72
 1018      617.704      1163.38
 1019      618.102      1137.38
 1020      618.501      1120.42
 1021      618.899      1111.34
 1022      619.298       1107.9
 1023      619.696       1107.5
 1024      620.094       1107.8
 1025      620.492      1107.02
 1026       620.89      1104.34
 1027      621.288      1099.72
 1028      621.686      1094.06
 1029      622.083      1088.08
 1030       622.48      1083.08
 1031      622.878      1079.42
 1032      623.275      1075.44
 1033      623.672         1071
 1034      624.069      1066.24
 1035      624.466      1060.58
 1036      624.863         1054
 1037      625.259      1047.24
 1038      625.656       1039.1
 1039      626.052       1029.7
 1040      626.448         1019
 1041      626.844      1006.76
 1042      627.241       994.48
 1043      627.636       983.76
 1044      628.032       975.44
 1045      628.428       971.02
 1046      628.823       971.96
 1047      629.219        977.2
 1048      629.614       986.58
 1049      630.009        997.5
 1050      630.404      1005.46
 1051      630.799       1005.5
 1052      631.194       996.06
 1053      631.589       975.96
 1054      631.984       947.24
 1055      632.378       914.82
 1056      632.772       882.82
 1057      633.167       853.94
 1058      633.561       830.34
 1059      633.955       811.98
 1060      634.349       797.16
 1061      634.743       785.88
 1062      635.136       777.32
 1063       635.53       770.36
 1064      635.923       764.02
 1065      636.316       758.74
 1066       636.71        754.5
 1067      637.103       751.02
 1068      637.496       747.64
 1069      637.888       744.56
 1070      638.281        741.4
 1071      638.674        738.4
 1072      639.066       736.16
 1073      639.459       734.68
 1074      639.851       733.46
 1075      640.243          732
 1076      640.635       730.38
 1077      641.027       728.18
 1078      641.419       725.04
 1079       641.81       722.44
 1080      642.202       721.14
 1081      642.593       720.18
 1082      642.984       719.44
 1083      643.375       719.26
 1084      643.766       718.94
 1085      644.157       718.74
 1086      644.548        718.4
 1087      644.939       717.52
 1088      645.329        716.3
 1089       645.72       714.54
 1090       646.11        712.2
 1091        646.5       709.72
 1092       646.89       707.74
 1093       647.28       707.26
 1094       647.67       708.78
 1095       648.06       711.54
 1096      648.449       715.46
 1097      648.839        720.4
 1098      649.228       724.64
 1099      649.617        727.3
 1100      650.007        728.6
 1101      650.396        728.1
 1102      650.784        725.3
 1103      651.173       721.34
 1104      651.562       717.16
 1105       651.95       712.54
 1106      652.339       708.04
 1107      652.727       704.38
 1108      653.115        701.3
 1109      653.503        698.4
 1110      653.891        695.3
 1111      654.279        692.2
 1112      654.666       689.64
 1113      655.054       687.66
 1114      655.441       685.78
 1115      655.828          685
 1116      656.216        684.7
 1117      656.603       683.88
 1118      656.989       683.14
 1119      657.376       682.82
 1120      657.763       682.24
 1121      658.149          681
 1122      658.536       679.52
 1123      658.922        678.1
 1124      659.308       676.78
 1125      659.694       675.24
 1126       660.08       674.48
 1127      660.466       674.56
 1128      660.852       674.64
 1129      661.237       674.88
 1130      661.623       676.36
 1131      662.008       678.32
 1132      662.393       679.72
 1133      662.778          680
 1134      663.163       679.14
 1135      663.548       676.46
 1136      663.933       672.74
 1137      664.317        669.4
 1138      664.702        666.7
 1139      665.086       664.22
 1140       665.47        662.3
 1141      665.854       660.64
 1142      666.238        659.2
 1143      666.622       658.24
 1144      667.006       657.88
 1145      667.389       657.62
 1146      667.773       657.36
 1147      668.156        656.9
 1148      668.539       655.94
 1149      668.923       654.78
 1150      669.305       653.26
 1151      669.688        651.8
 1152      670.071       650.68
 1153      670.454       649.52
 1154      670.836       648.28
 1155      671.218        647.8
 1156      671.601       647.56
 1157      671.983       646.86
 1158      672.365        645.7
 1159      672.747        644.6
 1160      673.128       643.62
 1161       673.51       642.34
 1162      673.891       641.16
 1163      674.273       640.94
 1164      674.654       640.86
 1165      675.035       640.42
 1166      675.416        640.4
 1167      675.797       639.94
 1168      676.177       639.16
 1169      676.558       638.24
 1170      676.938       637.14
 1171      677.319       635.76
 1172      677.699       635.34
 1173      678.079       635.56
 1174      678.459       635.98
 1175      678.839       636.72
 1176      679.219        637.3
 1177      679.598       637.18
 1178      679.978       636.72
 1179      680.357       636.22
 1180      680.736        635.7
 1181      681.115       635.32
 1182      681.494       634.84
 1183      681.873       633.88
 1184      682.252        632.9
 1185       682.63       632.36
 1186      683.009       632.64
 1187      683.387       632.68
 1188      683.765        632.8
 1189      684.143       632.88
 1190      684.521       632.52
 1191      684.899        631.9
 1192      685.277       632.06
 1193      685.654       633.06
 1194      686.032       635.28
 1195      686.409       637.76
 1196      686.786       639.68
 1197      687.163       641.04
 1198       687.54       640.74
 1199      687.917       638.38
 1200      688.294       635.32
 1201       688.67        632.4
 1202      689.046        630.1
 1203      689.423       629.02
 1204      689.799       629.08
 1205      690.175        629.6
 1206      690.551       629.84
 1207      690.927       629.58
 1208      691.302       628.78
 1209      691.678       627.72
 1210      692.053       626.62
 1211      692.428       625.68
 1212      692.804        624.6
 1213      693.179       623.84
 1214      693.553       623.06
 1215      693.928       622.06
 1216      694.303       621.26
 1217      694.677       620.24
 1218      695.052       618.76
 1219      695.426       617.58
 1220        695.8       616.84
 1221      696.174       615.74
 1222      696.548        614.7
 1223      696.921       613.68
 1224      697.295        612.1
 1225      697.669       609.82
 1226      698.042       607.68
 1227      698.415       606.26
 1228      698.788       605.82
 1229      699.161       606.12
 1230      699.534       607.06
 1231      699.907       607.96
 1232      700.279       608.56
 1233      700.652       608.62
 1234      701.024        608.1
 1235      701.396       607.94
 1236      701.768       608.52
 1237       702.14       609.38
 1238      702.512       610.68
 1239      702.883       612.44
 1240      703.255       614.16
 1241      703.626       615.98
 1242      703.998       618.34
 1243      704.369       621.46
 1244       704.74       625.52
 1245      705.111        630.6
 1246      705.481        636.7
 1247      705.852        643.4
 1248      706.222       649.62
 1249      706.593       655.38
 1250      706.963       660.28
 1251      707.333        663.4
 1252      707.703       665.12
 1253      708.073       665.52
 1254      708.442        664.1
 1255      708.812       661.28
 1256      709.181        657.6
 1257      709.551       653.28
 1258       709.92        649.4
 1259      710.289       646.88
 1260      710.658       645.64
 1261      711.027        645.1
 1262      711.395        644.9
 1263      711.764       644.66
 1264      712.132        643.3
 1265        712.5       639.44
 1266      712.869       634.26
 1267      713.236       628.24
 1268      713.604       621.92
 1269      713.972       615.72
 1270       714.34       610.82
 1271      714.707       606.88
 1272      715.074       603.96
 1273      715.442       601.56
 1274      715.809       599.38
 1275      716.176       597.72
 1276      716.542          597
 1277      716.909       596.22
 1278      717.276       595.36
 1279      717.642       594.72
 1280      718.008       594.02
 1281      718.374       593.44
 1282       718.74       593.52
 1283      719.106       593.64
 1284      719.472       593.72
 1285      719.838       593.84
 1286      720.203       593.36
 1287      720.568       592.44
 1288      720.934       591.98
 1289      721.299       592.08
 1290      721.664       592.62
 1291      722.029       593.52
 1292      722.393        594.4
 1293      722.758        595.3
 1294      723.122       596.04
 1295      723.486       595.88
 1296      723.851       595.34
 1297      724.215       594.64
 1298      724.578        593.1
 1299      724.942       591.38
 1300      725.306       590.78
 1301      725.669       590.82
 1302      726.033       591.72
 1303      726.396        593.7
 1304      726.759        595.4
 1305      727.122       595.94
 1306      727.485       595.52
 1307      727.847       594.44
 1308       728.21        592.5
 1309      728.572        591.5
 1310      728.935       591.92
 1311      729.297       592.74
 1312      729.659       593.64
 1313      730.021        594.9
 1314      730.382       595.54
 1315      730.744       595.36
 1316      731.105       594.66
 1317      731.467       593.18
 1318      731.828       591.94
 1319      732.189       591.06
 1320       732.55       590.12
 1321      732.911       589.62
 1322      733.271       589.92
 1323      733.632       589.96
 1324      733.992       589.86
 1325      734.352       590.22
 1326      734.713        591.1
 1327      735.072       592.04
 1328      735.432       592.44
 1329      735.792       592.52
 1330      736.152       592.58
 1331      736.511       592.56
 1332       736.87        592.5
 1333      737.229       593.16
 1334      737.589       593.36
 1335      737.947       592.58
 1336      738.306        591.6
 1337      738.665       590.78
 1338      739.023       590.06
 1339      739.382       590.08
 1340       739.74        590.9
 1341      740.098       591.82
 1342      740.456       592.66
 1343      740.814        592.8
 1344      741.171       592.58
 1345      741.529       592.56
 1346      741.886       592.08
 1347      742.244       591.26
 1348      742.601       590.92
 1349      742.958       590.48
 1350      743.314       589.64
 1351      743.671       589.22
 1352      744.028        588.6
 1353      744.384       587.92
 1354       744.74       587.74
 1355      745.097       588.06
 1356      745.453       588.76
 1357      745.809       589.62
 1358      746.164       590.12
 1359       746.52       590.54
 1360      746.875        590.6
 1361      747.231       590.36
 1362      747.586       590.38
 1363      747.941       590.58
 1364      748.296       590.68
 1365      748.651       590.58
 1366      749.005       590.88
 1367       749.36       591.02
 1368      749.714       591.12
 1369      750.069       591.72
 1370      750.423       592.62
 1371      750.777       592.44
 1372       751.13       591.94
 1373      751.484       591.46
 1374      751.838       590.92
 1375      752.191          590
 1376      752.544       588.88
 1377      752.897       588.22
 1378       753.25       587.62
 1379      753.603       586.84
 1380      753.956       586.38
 1381      754.309       586.24
 1382      754.661       585.74
 1383      755.013       585.34
 1384      755.365       584.74
 1385      755.717       584.24
 1386      756.069       584.52
 1387      756.421        585.2
 1388      756.773       585.94
 1389      757.124       586.68
 1390      757.476       587.32
 1391      757.827       587.56
 1392      758.178       587.36
 1393      758.529       586.98
 1394      758.879       586.36
 1395       759.23       585.82
 1396      759.581       585.66
 1397      759.931       586.26
 1398      760.281       586.76
 1399      760.631       587.16
 1400      760.981          588
 1401      761.331        589.1
 1402      761.681        589.9
 1403       762.03       590.78
 1404      762.379       591.74
 1405      762.729       591.76
 1406      763.078        591.1
 1407      763.427       590.74
 1408      763.776        590.6
 1409      764.124       590.46
 1410      764.473        590.3
 1411      764.821        589.8
 1412      765.169        588.6
 1413      765.517        587.5
 1414      765.865        586.8
 1415      766.213        586.2
 1416      766.561          586
 1417      766.909       585.76
 1418      767.256        585.3
 1419      767.603       584.68
 1420       767.95       584.14
 1421      768.297       583.74
 1422      768.644       584.16
 1423      768.991       584.84
 1424      769.337       585.32
 1425      769.684       585.92
 1426       770.03       586.12
 1427      770.376        586.1
 1428      770.722        586.1
 1429      771.068        586.4
 1430      771.414       586.88
 1431      771.759       587.58
 1432      772.105       587.96
 1433       772.45       587.78
 1434      772.795       587.02
 1435       773.14       586.54
 1436      773.485       586.22
 1437       773.83       585.22
 1438      774.174       584.54
 1439      774.519        584.5
 1440      774.863        583.9
 1441      775.207       583.48
 1442      775.551       583.84
 1443      775.895       584.22
 1444      776.239       584.44
 1445      776.582        584.6
 1446      776.926       584.36
 1447      777.269       583.92
 1448      777.612       583.96
 1449      777.955       584.22
 1450      778.298       584.18
 1451      778.641       584.38
 1452      778.983       584.86
 1453      779.326       584.68
 1454      779.668       584.22
 1455       780.01       584.42
 1456      780.352       584.82
 1457      780.694       585.28
 1458      781.036       585.68
 1459      781.377       586.02
 1460      781.719       586.06
 1461       782.06       585.36
 1462      782.401       584.44
 1463      782.742       584.06
 1464      783.083        583.4
 1465      783.424       582.52
 1466      783.764        582.1
 1467      784.105       581.68
 1468      784.445       580.86
 1469      784.785       580.66
 1470      785.125       581.36
 1471      785.465       582.54
 1472      785.805       583.84
 1473      786.144       584.78
 1474      786.484       585.54
 1475      786.823          586
 1476      787.162       585.52
 1477      787.501       584.94
 1478       787.84       584.74
 1479      788.178       584.18
 1480      788.517       583.32
 1481      788.855       583.06
 1482      789.194        582.9
 1483      789.532       582.94
 1484       789.87       583.44
 1485      790.208          584
 1486      790.545       584.28
 1487      790.883       584.08
 1488       791.22       583.72
 1489      791.557       582.84
 1490      791.894       581.86
 1491      792.231       581.16
 1492      792.568       580.86
 1493      792.905       580.94
 1494      793.241       581.72
 1495      793.578       582.18
 1496      793.914       582.62
 1497       794.25       583.54
 1498      794.586       584.22
 1499      794.922       584.36
 1500      795.257       584.88
 1501      795.593          585
 1502      795.928       583.94
 1503      796.263       582.62
 1504      796.598       581.98
 1505      796.933       581.72
 1506      797.268       581.74
 1507      797.603       582.32
 1508      797.937       583.16
 1509      798.271        583.5
 1510      798.606       583.32
 1511       798.94       583.28
 1512      799.274       582.94
 1513      799.607       582.36
 1514      799.941        581.9
 1515      800.274       581.66
 1516      800.608       580.94
 1517      800.941       580.52
 1518      801.274       580.22
 1519      801.607       579.84
 1520      801.939       579.82
 1521      802.272        580.4
 1522      802.604       580.86
 1523      802.936       580.96
 1524      803.269       581.42
 1525      803.601       581.64
 1526      803.932       581.62
 1527      804.264       582.28
 1528      804.596       582.94
 1529      804.927        582.7
 1530      805.258       581.98
 1531      805.589       580.84
 1532       805.92       578.92
 1533      806.251       578.26
 1534      806.582       578.64
 1535      806.912       578.94
 1536      807.242        579.6
 1537      807.573       580.64
 1538      807.903        580.7
 1539      808.232       580.14
 1540      808.562       580.02
 1541      808.892       579.66
 1542      809.221       579.42
 1543      809.551       579.56
 1544       809.88       580.12
 1545      810.209        581.1
 1546      810.538       582.48
 1547      810.866        583.4
 1548      811.195       583.76
 1549      811.523       583.96
 1550      811.851       583.74
 1551       812.18        583.2
 1552      812.507       582.68
 1553      812.835       582.42
 1554      813.163        582.2
 1555       813.49       581.46
 1556      813.818       580.08
 1557      814.145          579
 1558      814.472       578.44
 1559      814.799       578.06
 1560      815.126       578.46
 1561      815.452       580.06
 1562      815.779       581.78
 1563      816.105       582.76
 1564      816.431        582.8
 1565      816.757       582.26
 1566      817.083       581.58
 1567      817.409       580.84
 1568      817.734       580.22
 1569       818.06       580.22
 1570      818.385       580.74
 1571       818.71       581.02
 1572      819.035       581.06
 1573       819.36       581.26
 1574      819.685       581.86
 1575      820.009       582.08
 1576      820.333       582.46
 1577      820.658        582.9
 1578      820.982        583.1
 1579      821.305       583.08
 1580      821.629       583.26
 1581      821.953       582.98
 1582      822.276       582.78
 1583        822.6       582.94
 1584      822.923       582.88
 1585      823.246       582.76
 1586      823.569       583.04
 1587      823.891       583.28
 1588      824.214       582.82
 1589      824.536       582.04
 1590      824.858        581.3
 1591       825.18       580.24
 1592      825.502       579.72
 1593      825.824       580.06
 1594      826.146       580.34
 1595      826.467        580.5
 1596      826.789       580.92
 1597       827.11       581.18
 1598      827.431       581.04
 1599      827.752       580.88
 1600      828.072       580.94
 1601      828.393       580.82
 1602      828.713       580.02
 1603      829.034       579.26
 1604      829.354        579.4
 1605      829.674       579.48
 1606      829.993       579.74
 1607      830.313       580.78
 1608      830.633        581.6
 1609      830.952       581.12
 1610      831.271        580.6
 1611       831.59       580.36
 1612      831.909       579.32
 1613      832.228       578.54
 1614      832.546        579.1
 1615      832.865       579.58
 1616      833.183        579.1
 1617      833.501        578.5
 1618      833.819       577.36
 1619      834.137        575.8
 1620      834.455       574.36
 1621      834.772       573.88
 1622      835.089       574.52
 1623      835.407       575.62
 1624      835.724        576.6
 1625       836.04       577.46
 1626      836.357        578.1
 1627      836.674       579.14
 1628       836.99        580.7
 1629      837.306       581.46
 1630      837.623       581.78
 1631      837.939       581.66
 1632      838.254       580.66
 1633       838.57       579.02
 1634      838.886       578.12
 1635      839.201       577.62
 1636      839.516       577.62
 1637      839.831       577.56
 1638      840.146       577.76
 1639      840.461       578.12
 1640      840.775       578.64
 1641       841.09       578.98
 1642      841.404       579.06
 1643      841.718       578.84
 1644      842.032       577.94
 1645      842.346        576.6
 1646      842.659       575.76
 1647      842.973       576.02
 1648      843.286       576.78
 1649      843.599       578.02
 1650      843.912       579.42
 1651      844.225       580.08
 1652      844.538       580.16
 1653      844.851       580.18
 1654      845.163       580.44
 1655      845.475       580.86
 1656      845.787       581.22
 1657      846.099       580.98
 1658      846.411       580.46
 1659      846.723       579.92
 1660      847.034       579.86
 1661      847.345       580.46
 1662      847.657       581.32
 1663      847.968        582.1
 1664      848.278       582.26
 1665      848.589       581.64
 1666        848.9       580.92
 1667       849.21       580.42
 1668       849.52          580
 1669       849.83       580.22
 1670       850.14       580.32
 1671       850.45       579.86
 1672      850.759        579.7
 1673      851.069       579.96
 1674      851.378       579.96
 1675      851.687       580.74
 1676      851.996        581.9
 1677      852.305       582.38
 1678      852.614       582.54
 1679      852.922       582.74
 1680       853.23       582.32
 1681      853.539       581.62
 1682      853.847       580.98
 1683      854.154       580.16
 1684      854.462       579.24
 1685       854.77       578.42
 1686      855.077       577.66
 1687      855.384        576.9
 1688      855.691        576.6
 1689      855.998       576.72
 1690      856.305       577.18
 1691      856.612          578
 1692      856.918        578.8
 1693      857.224       579.34
 1694       857.53       579.86
 1695      857.836        579.9
 1696      858.142       579.64
 1697      858.448       579.16
 1698      858.753        578.6
 1699      859.059       577.88
 1700      859.364       577.86
 1701      859.669        578.4
 1702      859.974        579.1
 1703      860.278       579.46
 1704      860.583        579.6
 1705      860.887        579.7
 1706      861.192       579.58
 1707      861.496       579.36
 1708        861.8       579.28
 1709      862.103       579.36
 1710      862.407       578.56
 1711       862.71       577.46
 1712      863.014        577.1
 1713      863.317       577.24
 1714       863.62       577.52
 1715      863.922        578.7
 1716      864.225       580.16
 1717      864.527       580.76
 1718       864.83       580.92
 1719      865.132       580.84
 1720      865.434       579.96
 1721      865.736       578.84
 1722      866.037       578.56
 1723      866.339       578.62
 1724       866.64       578.52
 1725      866.941       578.74
 1726      867.242        579.2
 1727      867.543       579.42
 1728      867.844       578.96
 1729      868.145       578.16
 1730      868.445       577.66
 1731      868.745       577.38
 1732      869.045       576.72
 1733      869.345        576.5
 1734      869.645       576.94
 1735      869.944       577.36
 1736      870.244       577.34
 1737      870.543       577.82
 1738      870.842        578.5
 1739      871.141        579.3
 1740       871.44        579.6
 1741      871.739        579.3
 1742      872.037       578.82
 1743      872.335       578.48
 1744      872.634        578.1
 1745      872.931       578.16
 1746      873.229       578.76
 1747      873.527       579.14
 1748      873.824       579.08
 1749      874.122       578.44
 1750      874.419          578
 1751      874.716       577.78
 1752      875.013       577.22
 1753      875.309       576.84
 1754      875.606       577.34
 1755      875.902       577.96
 1756      876.199       578.38
 1757      876.495       579.18
 1758       876.79          580
 1759      877.086       580.32
 1760      877.382       579.82
 1761      877.677       578.84
 1762      877.972       578.04
 1763      878.267       577.22
 1764      878.562       576.62
 1765      878.857       576.44
 1766      879.152       576.58
 1767      879.446       576.12
 1768       879.74       575.64
 1769      880.034       574.92
 1770      880.328       574.54
 1771      880.622       574.54
 1772      880.916       574.88
 1773      881.209       575.48
 1774      881.502       576.72
 1775      881.795       577.78
 1776      882.088        578.6
 1777      882.381       579.86
 1778      882.674        580.7
 1779      882.966       580.58
 1780      883.258       580.38
 1781      883.551       580.24
 1782      883.843       579.56
 1783      884.134       578.84
 1784      884.426       578.08
 1785      884.717       577.14
 1786      885.009       576.64
 1787        885.3       576.24
 1788      885.591       575.78
 1789      885.882       575.92
 1790      886.172       576.56
 1791      886.463        576.9
 1792      886.753       577.36
 1793      887.043        578.1
 1794      887.333       578.74
 1795      887.623       579.02
 1796      887.913        579.3
 1797      888.202        580.1
 1798      888.492       581.14
 1799      888.781       581.92
 1800       889.07       582.52
 1801      889.359       582.32
 1802      889.647       581.26
 1803      889.936       580.28
 1804      890.224       579.56
 1805      890.512        578.9
 1806        890.8        578.8
 1807      891.088       579.46
 1808      891.376       580.22
 1809      891.663       580.72
 1810      891.951       580.78
 1811      892.238       580.36
 1812      892.525       579.44
 1813      892.812       578.48
 1814      893.099       578.24
 1815      893.385       578.66
 1816      893.671       579.58
 1817      893.958        580.6
 1818      894.244       581.38
 1819       894.53       581.62
 1820      894.815          582
 1821      895.101       582.72
 1822      895.386          583
 1823      895.671       582.22
 1824      895.956       581.08
 1825      896.241       579.52
 1826      896.526       577.82
 1827       896.81       577.16
 1828      897.095       577.54
 1829      897.379       578.28
 1830      897.663       579.54
 1831      897.947        580.5
 1832      898.231       580.58
 1833      898.514       580.56
 1834      898.798       580.48
 1835      899.081       579.92
 1836      899.364       579.38
 1837      899.647       579.04
 1838      899.929       578.68
 1839      900.212       577.92
 1840      900.494       577.36
 1841      900.776       577.26
 1842      901.058        577.1
 1843       901.34       576.56
 1844      901.622        576.2
 1845      901.904       575.82
 1846      902.185       575.54
 1847      902.466       575.48
 1848      902.747       575.38
 1849      903.028       575.58
 1850      903.309        575.6
 1851      903.589        575.3
 1852       903.87        575.1
 1853       904.15       575.44
 1854       904.43       576.16
 1855       904.71       577.34
 1856      904.989       578.98
 1857      905.269          580
 1858      905.548       580.44
 1859      905.827        580.1
 1860      906.106       579.46
 1861      906.385       578.36
 1862      906.664       577.42
 1863      906.942       577.06
 1864      907.221       577.24
 1865      907.499       577.32
 1866      907.777       576.88
 1867      908.055       576.74
 1868      908.332       576.94
 1869       908.61       577.26
 1870      908.887       577.46
 1871      909.164       578.36
 1872      909.441        579.2
 1873      909.718       579.54
 1874      909.995          580
 1875      910.271       580.44
 1876      910.548       580.42
 1877      910.824       580.28
 1878        911.1       579.72
 1879      911.375       578.36
 1880      911.651        577.1
 1881      911.927       576.28
 1882      912.202       576.12
 1883      912.477       576.52
 1884      912.752       577.06
 1885      913.027       577.58
 1886      913.301       577.68
 1887      913.576       577.24
 1888       913.85       576.98
 1889      914.124       577.12
 1890      914.398       577.34
 1891      914.672       577.74
 1892      914.945        578.1
 1893      915.219       578.14
 1894      915.492       578.14
 1895      915.765       578.62
 1896      916.038       578.98
 1897      916.311       579.52
 1898      916.583       580.76
 1899      916.856       581.58
 1900      917.128       581.88
 1901        917.4       582.46
 1902      917.672       582.46
 1903      917.944       581.26
 1904      918.215       579.64
 1905      918.486        577.9
 1906      918.758       575.92
 1907      919.029       574.16
 1908      919.299          573
 1909       919.57        573.3
 1910      919.841        574.4
 1911      920.111       575.18
 1912      920.381       576.18
 1913      920.651       577.66
 1914      920.921       577.82
 1915      921.191       576.84
 1916       921.46       576.94
 1917      921.729       577.32
 1918      921.999        576.7
 1919      922.268        576.5
 1920      922.536       576.98
 1921      922.805        576.8
 1922      923.073       576.82
 1923      923.342       577.84
 1924       923.61       578.94
 1925      923.878       579.56
 1926      924.145       580.06
 1927      924.413       580.06
 1928       924.68        579.4
 1929      924.948       578.92
 1930      925.215       579.04
 1931      925.482       579.16
 1932      925.748       579.12
 1933      926.015       579.02
 1934      926.281       578.72
 1935      926.547       578.36
 1936      926.813       578.04
 1937      927.079       577.94
 1938      927.345       578.12
 1939       927.61       578.22
 1940      927.876        577.9
 1941      928.141        577.6
 1942      928.406        577.7
 1943      928.671        577.9
 1944      928.935       578.12
 1945        929.2        578.5
 1946      929.464        578.9
 1947      929.728       578.28
 1948      929.992       577.28
 1949      930.256       576.74
 1950       930.52        576.5
 1951      930.783       576.42
 1952      931.046       577.48
 1953      931.309       578.54
 1954      931.572        578.9
 1955      931.835       578.64
 1956      932.097       578.62
 1957       932.36        578.7
 1958      932.622       579.22
 1959      932.884       579.88
 1960      933.146        580.8
 1961      933.408       580.94
 1962      933.669       580.14
 1963       933.93        579.1
 1964      934.192       578.26
 1965      934.453       577.46
 1966      934.713       577.58
 1967      934.974       578.14
 1968      935.234       578.22
 1969      935.495       577.98
 1970      935.755       578.08
 1971      936.015       577.38
 1972      936.274       576.36
 1973      936.534       576.26
 1974      936.793        576.7
 1975      937.053       576.74
 1976      937.312       577.06
 1977      937.571       577.54
 1978      937.829       577.82
 1979      938.088       578.12
 1980      938.346       578.46
 1981      938.604       578.58
 1982      938.862        578.2
 1983       939.12       576.98
 1984      939.378       575.68
 1985      939.635       574.74
 1986      939.893       574.76
 1987       940.15       575.54
 1988      940.407        576.4
 1989      940.663       577.28
 1990       940.92       578.08
 1991      941.176        578.4
 1992      941.433        578.6
 1993      941.689       579.36
 1994      941.944       579.76
 1995        942.2       579.28
 1996      942.456       578.34
 1997      942.711       577.58
 1998      942.966       577.24
 1999      943.221       577.48
 2000      943.476       578.16
 2001      943.731        578.4
 2002      943.985        578.3
 2003      944.239       577.52
 2004      944.493       576.66
 2005      944.747        576.3
 2006      945.001       576.68
 2007      945.255       577.38
 2008      945.508       578.44
 2009      945.761       578.84
 2010      946.014       578.88
 2011      946.267        579.2
 2012       946.52       579.34
 2013      946.772        579.5
 2014      947.025        580.3
 2015      947.277        581.3
 2016      947.529       581.72
 2017      947.781        581.8
 2018      948.032        581.5
 2019      948.284       580.92
 2020      948.535       580.02
 2021      948.786        579.2
 2022      949.037       578.72
 2023      949.288        578.5
 2024      949.538        578.5
 2025      949.789       578.54
 2026      950.039       578.56
 2027      950.289       578.54
 2028      950.539       578.58
 2029      950.788       578.44
 2030      951.038       578.18
 2031      951.287       578.18
 2032      951.536       578.24
 2033      951.785        578.4
 2034      952.034       578.64
 2035      952.282        578.8
 2036      952.531       578.76
 2037      952.779       578.72
 2038      953.027        578.7
 2039      953.275       578.68
 2040      953.523       578.66
 2041       953.77       578.58
 2042      954.017       578.46
 2043      954.264       577.94
 2044      954.511       577.42
 2045      954.758       577.32
 2046      955.005       577.35
 2047      955.251        577.3
