scansci Spectrometer Data File
--- Measurement Setting ---
Type: Sample Spectrum
Date: Mon Oct 16 15:49:01 2023
User: (Reserved by scansci)
Serial: (Reserved by scansci)
Channel: No. 11
Integration Time: 1
Average: 10
Boxcar: 2
Electrical Dark: No-corrected
Time Normalize: (Reserved by scansci)
Dual-beam: (Reserved by scansci)
Reference Ch: (Reserved by scansci)
--- Measurement Data ---
Pixel   Wavelength   Intensity
    0        344.4      702.833
    1      344.867          703
    2      345.334       703.28
    3      345.801        703.5
    4      346.268        703.8
    5      346.735       703.94
    6      347.202        703.6
    7      347.669       703.04
    8      348.135       701.98
    9      348.602        700.6
   10      349.068       700.38
   11      349.535        700.8
   12      350.001       700.86
   13      350.467       701.42
   14      350.933       702.08
   15      351.399       702.04
   16      351.866       701.48
   17      352.331       701.38
   18      352.797       701.36
   19      353.263       701.62
   20      353.729       701.32
   21      354.194        701.1
   22       354.66       701.04
   23      355.126        700.8
   24      355.591       700.76
   25      356.056       701.52
   26      356.522        702.5
   27      356.987       703.04
   28      357.452       703.26
   29      357.917       703.24
   30      358.382       703.12
   31      358.847       702.96
   32      359.312       703.24
   33      359.776       703.84
   34      360.241        704.4
   35      360.706       704.56
   36       361.17       704.42
   37      361.634       704.38
   38      362.099       704.28
   39      362.563        703.6
   40      363.027       703.28
   41      363.491       703.44
   42      363.955       703.36
   43      364.419       703.28
   44      364.883       702.98
   45      365.347          702
   46      365.811       701.16
   47      366.274        700.4
   48      366.738       699.64
   49      367.201       699.86
   50      367.665       700.84
   51      368.128       701.32
   52      368.592       701.44
   53      369.055       702.12
   54      369.518       702.98
   55      369.981       703.18
   56      370.444       703.16
   57      370.907        703.3
   58       371.37       702.86
   59      371.832          702
   60      372.295       701.34
   61      372.757       701.04
   62       373.22       700.96
   63      373.682       701.08
   64      374.145       701.32
   65      374.607       701.76
   66      375.069       701.92
   67      375.531        701.5
   68      375.993        701.2
   69      376.455       701.14
   70      376.917       701.38
   71      377.379        701.9
   72      377.841        702.5
   73      378.302       702.84
   74      378.764       702.76
   75      379.225       702.02
   76      379.687       701.34
   77      380.148       701.16
   78      380.609       701.32
   79      381.071       701.72
   80      381.532       702.24
   81      381.993       702.22
   82      382.454       701.72
   83      382.915       701.02
   84      383.375       700.24
   85      383.836       699.88
   86      384.297       700.32
   87      384.757       701.36
   88      385.218       702.24
   89      385.678       702.68
   90      386.138       702.78
   91      386.599       702.58
   92      387.059       702.04
   93      387.519        701.5
   94      387.979       701.32
   95      388.439        701.8
   96      388.899        702.5
   97      389.358       702.88
   98      389.818       703.36
   99      390.278        703.7
  100      390.737       703.52
  101      391.197       703.34
  102      391.656       703.56
  103      392.115       703.48
  104      392.575       703.12
  105      393.034          703
  106      393.493       702.74
  107      393.952       702.78
  108      394.411       702.94
  109       394.87        703.4
  110      395.328       703.84
  111      395.787       703.94
  112      396.246       703.88
  113      396.704       704.12
  114      397.163       704.06
  115      397.621       703.84
  116      398.079       704.02
  117      398.537        703.9
  118      398.995       703.36
  119      399.454       702.84
  120      399.911       702.48
  121      400.369       702.06
  122      400.827        701.5
  123      401.285       701.24
  124      401.743       701.82
  125        402.2       702.22
  126      402.658       702.04
  127      403.115       702.08
  128      403.572       701.92
  129       404.03       700.92
  130      404.487       700.16
  131      404.944       700.22
  132      405.401       700.38
  133      405.858       700.72
  134      406.315        701.4
  135      406.771       701.76
  136      407.228        701.5
  137      407.685       701.52
  138      408.141        701.9
  139      408.598       702.08
  140      409.054       702.34
  141       409.51       702.92
  142      409.967       702.88
  143      410.423        702.5
  144      410.879        702.5
  145      411.335        702.3
  146      411.791       702.14
  147      412.246        702.6
  148      412.702       703.58
  149      413.158       704.68
  150      413.613       705.54
  151      414.069       705.88
  152      414.524       705.22
  153       414.98       703.62
  154      415.435        701.7
  155       415.89       699.94
  156      416.345       698.92
  157        416.8          699
  158      417.255       699.76
  159       417.71       700.62
  160      418.165       701.34
  161      418.619       702.34
  162      419.074       703.14
  163      419.529       703.08
  164      419.983        702.7
  165      420.437       702.68
  166      420.892       702.26
  167      421.346       701.64
  168        421.8       701.14
  169      422.254        700.9
  170      422.708        701.1
  171      423.162        701.1
  172      423.616       701.48
  173       424.07        703.1
  174      424.523       704.58
  175      424.977       705.08
  176       425.43       705.52
  177      425.884       705.36
  178      426.337       703.88
  179       426.79       702.66
  180      427.243       702.32
  181      427.697        701.9
  182       428.15       701.58
  183      428.602       701.82
  184      429.055       702.36
  185      429.508       702.58
  186      429.961       702.66
  187      430.413       702.24
  188      430.866       701.68
  189      431.318       701.58
  190      431.771       701.56
  191      432.223       701.06
  192      432.675       701.06
  193      433.127       701.46
  194      433.579       700.96
  195      434.031        700.6
  196      434.483       701.14
  197      434.935       701.94
  198      435.387       702.58
  199      435.838          703
  200       436.29        703.1
  201      436.741       702.96
  202      437.193       702.62
  203      437.644       702.26
  204      438.095       702.68
  205      438.546       703.24
  206      438.997        703.4
  207      439.448        703.6
  208      439.899       704.08
  209       440.35       704.04
  210      440.801        703.9
  211      441.251        704.1
  212      441.702       703.96
  213      442.152       703.56
  214      442.603       703.12
  215      443.053       702.88
  216      443.503       703.02
  217      443.954       703.36
  218      444.404       703.26
  219      444.854       703.14
  220      445.304       703.32
  221      445.753       703.32
  222      446.203       703.22
  223      446.653       702.94
  224      447.102          703
  225      447.552       702.92
  226      448.001       702.76
  227      448.451       703.14
  228        448.9       703.98
  229      449.349       704.02
  230      449.798       703.74
  231      450.247       703.22
  232      450.696       702.28
  233      451.145       701.36
  234      451.594       701.08
  235      452.042       701.04
  236      452.491       700.78
  237      452.939       700.46
  238      453.388       700.68
  239      453.836       701.28
  240      454.285       701.44
  241      454.733       701.82
  242      455.181       702.42
  243      455.629       702.64
  244      456.077       702.38
  245      456.525       702.66
  246      456.972        703.2
  247       457.42       703.48
  248      457.868       703.18
  249      458.315       702.58
  250      458.763       701.78
  251       459.21       701.56
  252      459.657        701.5
  253      460.104       701.52
  254      460.552       701.86
  255      460.999       702.26
  256      461.446       702.44
  257      461.892       702.86
  258      462.339       703.16
  259      462.786       702.94
  260      463.233       702.46
  261      463.679       701.56
  262      464.125       700.54
  263      464.572       699.98
  264      465.018       699.74
  265      465.464       699.68
  266       465.91       699.74
  267      466.356       700.04
  268      466.802       701.02
  269      467.248        701.9
  270      467.694        702.4
  271       468.14       702.94
  272      468.585       703.14
  273      469.031       702.06
  274      469.476       701.24
  275      469.922       701.12
  276      470.367       701.12
  277      470.812       701.48
  278      471.257       702.54
  279      471.702       703.72
  280      472.147       704.48
  281      472.592       704.56
  282      473.037       704.12
  283      473.482       703.38
  284      473.926       702.56
  285      474.371          702
  286      474.815       701.66
  287      475.259       701.96
  288      475.704       702.84
  289      476.148       703.26
  290      476.592       703.14
  291      477.036       703.36
  292       477.48       702.94
  293      477.924          702
  294      478.368       701.56
  295      478.811       701.38
  296      479.255       700.84
  297      479.698       700.56
  298      480.142       700.62
  299      480.585       700.76
  300      481.028       700.92
  301      481.472        701.4
  302      481.915        701.9
  303      482.358        702.5
  304      482.801       702.72
  305      483.244       702.76
  306      483.686       702.52
  307      484.129       702.36
  308      484.572        702.2
  309      485.014       702.32
  310      485.456       702.74
  311      485.899        702.9
  312      486.341       702.58
  313      486.783       701.72
  314      487.225        700.5
  315      487.667       699.16
  316      488.109       698.56
  317      488.551       698.66
  318      488.993       699.66
  319      489.434        701.3
  320      489.876        702.8
  321      490.318       704.16
  322      490.759       704.82
  323        491.2       704.28
  324      491.641        703.1
  325      492.083       702.04
  326      492.524       700.66
  327      492.965        699.3
  328      493.406       698.96
  329      493.846       699.12
  330      494.287       699.14
  331      494.728       699.64
  332      495.168        700.7
  333      495.609       701.14
  334      496.049       701.38
  335      496.489       701.38
  336       496.93       701.08
  337       497.37       700.86
  338       497.81       700.78
  339       498.25       701.26
  340       498.69       702.36
  341      499.129        703.1
  342      499.569       703.42
  343      500.009        703.8
  344      500.448       703.22
  345      500.888       702.22
  346      501.327       701.58
  347      501.766       701.32
  348      502.206       701.52
  349      502.645       702.16
  350      503.084       702.92
  351      503.523        703.3
  352      503.961       702.84
  353        504.4       701.96
  354      504.839       701.06
  355      505.277       700.52
  356      505.716       700.24
  357      506.154       700.02
  358      506.593       699.86
  359      507.031        699.8
  360      507.469        699.4
  361      507.907       699.26
  362      508.345        699.8
  363      508.783       700.44
  364      509.221       700.76
  365      509.659       701.16
  366      510.096        701.5
  367      510.534       701.58
  368      510.971       701.24
  369      511.409       700.96
  370      511.846        700.8
  371      512.283       700.62
  372       512.72       700.76
  373      513.157       701.16
  374      513.594       701.42
  375      514.031       701.24
  376      514.468        701.1
  377      514.905       700.36
  378      515.341       699.54
  379      515.778       699.36
  380      516.214       699.72
  381       516.65       699.72
  382      517.087       699.76
  383      517.523       700.06
  384      517.959       700.08
  385      518.395       699.68
  386      518.831       699.46
  387      519.267       699.32
  388      519.702       699.24
  389      520.138       699.82
  390      520.574       700.52
  391      521.009          701
  392      521.444       701.94
  393       521.88       703.18
  394      522.315       703.58
  395       522.75       703.84
  396      523.185       704.26
  397       523.62       704.02
  398      524.055        702.8
  399       524.49       701.54
  400      524.924       700.58
  401      525.359        699.9
  402      525.794       699.74
  403      526.228        700.1
  404      526.662       700.98
  405      527.097       701.72
  406      527.531       701.84
  407      527.965       701.58
  408      528.399       701.14
  409      528.833       700.64
  410      529.267       699.92
  411        529.7       699.12
  412      530.134       698.64
  413      530.568       698.44
  414      531.001       697.94
  415      531.434       697.82
  416      531.868       698.28
  417      532.301       698.64
  418      532.734       698.94
  419      533.167        698.9
  420        533.6       699.56
  421      534.033       700.84
  422      534.466       701.78
  423      534.898       702.32
  424      535.331       703.12
  425      535.763       702.92
  426      536.196       701.86
  427      536.628       701.06
  428       537.06        700.2
  429      537.493        699.2
  430      537.925       698.46
  431      538.357       698.22
  432      538.788       698.54
  433       539.22        699.1
  434      539.652        699.5
  435      540.084       699.84
  436      540.515       700.22
  437      540.947       700.16
  438      541.378       700.28
  439      541.809       700.88
  440       542.24       701.48
  441      542.672       701.68
  442      543.103        701.6
  443      543.533       701.18
  444      543.964        700.8
  445      544.395        700.5
  446      544.826       700.46
  447      545.256        701.1
  448      545.687       701.88
  449      546.117       702.42
  450      546.547       702.64
  451      546.978        702.2
  452      547.408       701.34
  453      547.838       701.34
  454      548.268       701.52
  455      548.698       702.04
  456      549.127          703
  457      549.557        703.2
  458      549.987       702.58
  459      550.416       701.82
  460      550.846       700.64
  461      551.275       699.76
  462      551.704        700.3
  463      552.133       701.28
  464      552.562       702.14
  465      552.991       703.04
  466       553.42       703.62
  467      553.849       703.82
  468      554.278       703.48
  469      554.706        703.2
  470      555.135       703.08
  471      555.563       702.88
  472      555.991        702.5
  473       556.42        702.2
  474      556.848       702.04
  475      557.276        702.2
  476      557.704       702.34
  477      558.132       701.98
  478       558.56       701.72
  479      558.987       701.36
  480      559.415       700.56
  481      559.843       699.62
  482       560.27       699.14
  483      560.697       698.84
  484      561.125       699.04
  485      561.552       699.48
  486      561.979       699.76
  487      562.406       700.02
  488      562.833       700.42
  489       563.26       700.64
  490      563.686       701.02
  491      564.113          702
  492       564.54        702.8
  493      564.966       703.06
  494      565.392        702.9
  495      565.819       702.64
  496      566.245       702.06
  497      566.671        701.8
  498      567.097       702.04
  499      567.523       702.42
  500      567.949       702.58
  501      568.374       702.98
  502        568.8       703.66
  503      569.226       703.98
  504      569.651       703.98
  505      570.077       704.24
  506      570.502       704.14
  507      570.927       703.64
  508      571.352       703.94
  509      571.777       704.34
  510      572.202        704.5
  511      572.627       704.74
  512      573.052        704.6
  513      573.476       703.56
  514      573.901       702.96
  515      574.325       702.66
  516       574.75       702.32
  517      575.174       702.38
  518      575.598       702.44
  519      576.022       702.06
  520      576.446       701.78
  521       576.87       701.84
  522      577.294       701.52
  523      577.718       701.16
  524      578.142        701.5
  525      578.565       701.76
  526      578.989        701.7
  527      579.412       701.76
  528      579.835       702.34
  529      580.259          703
  530      580.682       703.26
  531      581.105       703.68
  532      581.528        704.3
  533      581.951        704.2
  534      582.373       703.52
  535      582.796       703.36
  536      583.219        702.9
  537      583.641          702
  538      584.063       701.68
  539      584.486       701.44
  540      584.908        701.1
  541       585.33       700.84
  542      585.752       700.86
  543      586.174        700.8
  544      586.596       700.54
  545      587.018        700.1
  546      587.439       699.94
  547      587.861       699.86
  548      588.282       699.76
  549      588.704       699.72
  550      589.125       699.56
  551      589.546       699.18
  552      589.967       699.18
  553      590.388        699.4
  554      590.809        699.5
  555       591.23       699.52
  556      591.651       699.78
  557      592.071       699.92
  558      592.492       699.84
  559      592.912       700.36
  560      593.333       701.04
  561      593.753       701.68
  562      594.173       702.18
  563      594.593       702.48
  564      595.013       702.22
  565      595.433        702.1
  566      595.853       701.86
  567      596.273       701.46
  568      596.693       701.78
  569      597.112       702.72
  570      597.532        703.4
  571      597.951        703.7
  572       598.37       703.96
  573      598.789       703.74
  574      599.208       702.96
  575      599.627       702.62
  576      600.046       702.66
  577      600.465       702.74
  578      600.884        702.9
  579      601.303       703.02
  580      601.721       702.12
  581      602.139       700.98
  582      602.558       700.12
  583      602.976       698.96
  584      603.394       697.82
  585      603.812        697.6
  586       604.23       698.16
  587      604.648        699.2
  588      605.066       700.48
  589      605.484       701.52
  590      605.901       702.32
  591      606.319       702.52
  592      606.736       702.16
  593      607.154       701.54
  594      607.571       701.28
  595      607.988       701.46
  596      608.405       701.88
  597      608.822       701.96
  598      609.239       701.82
  599      609.656       701.34
  600      610.072       700.68
  601      610.489       700.26
  602      610.905       700.36
  603      611.322       700.58
  604      611.738       701.16
  605      612.154       701.54
  606       612.57       701.64
  607      612.986       701.88
  608      613.402       702.62
  609      613.818       702.96
  610      614.234       703.02
  611       614.65       702.82
  612      615.065       701.62
  613      615.481       699.78
  614      615.896       698.44
  615      616.311       697.42
  616      616.727       696.66
  617      617.142       696.74
  618      617.557       697.26
  619      617.972       697.66
  620      618.386       697.32
  621      618.801       696.56
  622      619.216       696.12
  623       619.63       696.12
  624      620.045       696.38
  625      620.459       697.26
  626      620.873        698.6
  627      621.287        699.4
  628      621.702       700.04
  629      622.116       700.26
  630      622.529       700.54
  631      622.943       700.96
  632      623.357       701.32
  633      623.771        701.3
  634      624.184       701.34
  635      624.597       701.24
  636      625.011        700.9
  637      625.424       700.52
  638      625.837       699.96
  639       626.25       699.64
  640      626.663       699.68
  641      627.076        699.7
  642      627.489          700
  643      627.901       700.54
  644      628.314       700.64
  645      628.726       700.44
  646      629.139        700.5
  647      629.551        700.4
  648      629.963       700.64
  649      630.375       701.48
  650      630.787        702.6
  651      631.199       703.12
  652      631.611       703.56
  653      632.023       703.58
  654      632.434       702.84
  655      632.846       701.78
  656      633.257       700.88
  657      633.669       699.74
  658       634.08       699.16
  659      634.491       699.62
  660      634.902       700.52
  661      635.313        701.8
  662      635.724       702.82
  663      636.135       703.46
  664      636.545       703.66
  665      636.956       703.36
  666      637.366       702.96
  667      637.777          703
  668      638.187       702.88
  669      638.597       702.76
  670      639.007       702.84
  671      639.417       702.42
  672      639.827       702.24
  673      640.237        702.5
  674      640.647       702.72
  675      641.056       702.52
  676      641.466       702.68
  677      641.875       702.36
  678      642.285       701.58
  679      642.694       700.56
  680      643.103       700.02
  681      643.512       700.36
  682      643.921       701.44
  683       644.33       702.58
  684      644.739       704.02
  685      645.148       705.28
  686      645.556       705.66
  687      645.965       705.62
  688      646.373       705.74
  689      646.781        705.8
  690      647.189       706.02
  691      647.598       706.06
  692      648.006       706.02
  693      648.414       706.34
  694      648.821       707.04
  695      649.229       707.56
  696      649.637       707.96
  697      650.044       708.66
  698      650.452       709.04
  699      650.859        708.7
  700      651.266        708.6
  701      651.673       709.98
  702       652.08       711.66
  703      652.487       713.16
  704      652.894       714.98
  705      653.301       716.78
  706      653.708       717.64
  707      654.114       718.46
  708      654.521       720.06
  709      654.927        722.2
  710      655.333       725.06
  711       655.74       727.92
  712      656.146       730.48
  713      656.552       732.94
  714      656.958       735.24
  715      657.363        736.7
  716      657.769       738.36
  717      658.175       740.16
  718       658.58       741.32
  719      658.986       742.24
  720      659.391       743.56
  721      659.796       744.62
  722      660.201       746.06
  723      660.606        748.5
  724      661.011       751.22
  725      661.416       754.24
  726      661.821        757.3
  727      662.225        759.6
  728       662.63       761.42
  729      663.034        763.6
  730      663.439        766.4
  731      663.843       770.84
  732      664.247       777.26
  733      664.651       785.22
  734      665.055       794.56
  735      665.459       804.98
  736      665.863       816.24
  737      666.267       828.36
  738       666.67       842.16
  739      667.074       857.24
  740      667.477       873.88
  741       667.88       893.64
  742      668.283       918.32
  743      668.687        945.2
  744       669.09       973.18
  745      669.492      1004.34
  746      669.895      1035.82
  747      670.298       1067.9
  748      670.701       1107.7
  749      671.103      1160.56
  750      671.505      1234.78
  751      671.908       1373.6
  752       672.31      1854.66
  753      672.712      3257.58
  754      673.114      5893.96
  755      673.516      8883.06
  756      673.918      11801.5
  757       674.32      14369.4
  758      674.721      16001.8
  759      675.123      15755.5
  760      675.524      14201.2
  761      675.926      12070.3
  762      676.327      9582.86
  763      676.728      6873.08
  764      677.129      4649.18
  765       677.53       3264.1
  766      677.931      2400.74
  767      678.332      1859.08
  768      678.732      1517.02
  769      679.133      1301.56
  770      679.533      1162.56
  771      679.934      1069.62
  772      680.334      1004.48
  773      680.734       957.12
  774      681.134        921.8
  775      681.534       894.64
  776      681.934       872.56
  777      682.334       854.04
  778      682.733        838.4
  779      683.133       823.88
  780      683.532       810.76
  781      683.932       799.58
  782      684.331       790.44
  783       684.73        782.5
  784      685.129        775.3
  785      685.528       768.66
  786      685.927       762.78
  787      686.326       757.66
  788      686.725          753
  789      687.123       749.08
  790      687.522       745.88
  791       687.92       743.56
  792      688.319       741.76
  793      688.717       739.72
  794      689.115        737.8
  795      689.513       735.82
  796      689.911        733.7
  797      690.309        731.6
  798      690.706       729.92
  799      691.104       728.36
  800      691.501       726.98
  801      691.899        725.7
  802      692.296       724.46
  803      692.693       723.26
  804       693.09       721.72
  805      693.488       720.26
  806      693.884       718.52
  807      694.281        716.6
  808      694.678        714.9
  809      695.075        713.4
  810      695.471       712.78
  811      695.868          713
  812      696.264       713.12
  813       696.66       712.72
  814      697.056        712.7
  815      697.452        712.4
  816      697.848       711.82
  817      698.244       711.14
  818       698.64       710.76
  819      699.035       710.38
  820      699.431       709.72
  821      699.826       709.04
  822      700.222       708.98
  823      700.617       709.18
  824      701.012        708.8
  825      701.407       708.18
  826      701.802       707.26
  827      702.197       706.22
  828      702.592       705.34
  829      702.986        704.8
  830      703.381       704.26
  831      703.775       704.22
  832       704.17       704.04
  833      704.564       703.68
  834      704.958       703.52
  835      705.352       703.72
  836      705.746        703.9
  837       706.14          704
  838      706.533        704.1
  839      706.927        704.1
  840      707.321       703.64
  841      707.714       702.96
  842      708.107       702.44
  843      708.501       701.58
  844      708.894        700.7
  845      709.287       700.56
  846       709.68       700.62
  847      710.073          701
  848      710.465       701.72
  849      710.858        702.3
  850      711.251        702.4
  851      711.643       701.82
  852      712.035       700.82
  853      712.428       700.54
  854       712.82       700.58
  855      713.212       700.56
  856      713.604        701.3
  857      713.995        702.2
  858      714.387       702.26
  859      714.779       702.42
  860       715.17       702.98
  861      715.562       702.98
  862      715.953       702.96
  863      716.344       702.98
  864      716.735       702.68
  865      717.127        702.4
  866      717.517       702.22
  867      717.908       701.56
  868      718.299       700.98
  869       718.69       701.24
  870       719.08       701.72
  871      719.471          702
  872      719.861       702.66
  873      720.251       703.08
  874      720.641       702.48
  875      721.031        701.7
  876      721.421       701.44
  877      721.811       701.46
  878      722.201        701.7
  879       722.59       701.84
  880       722.98        701.8
  881      723.369       702.06
  882      723.759       702.56
  883      724.148       703.12
  884      724.537       703.92
  885      724.926       704.78
  886      725.315       704.72
  887      725.704       703.88
  888      726.092       703.28
  889      726.481        702.6
  890       726.87        701.6
  891      727.258       701.44
  892      727.646       701.88
  893      728.034       701.96
  894      728.423       701.94
  895      728.811       701.98
  896      729.198       701.42
  897      729.586        700.6
  898      729.974        699.6
  899      730.362       698.78
  900      730.749        698.4
  901      731.136       698.12
  902      731.524       697.82
  903      731.911       697.86
  904      732.298        698.3
  905      732.685       698.54
  906      733.072       698.58
  907      733.459        698.7
  908      733.845       698.72
  909      734.232       698.42
  910      734.618       698.42
  911      735.005        698.9
  912      735.391        699.5
  913      735.777       700.34
  914      736.163       701.14
  915      736.549       701.78
  916      736.935        702.5
  917      737.321       702.84
  918      737.706       702.64
  919      738.092       702.52
  920      738.477        702.8
  921      738.863       702.98
  922      739.248        702.6
  923      739.633       702.12
  924      740.018       701.94
  925      740.403       701.46
  926      740.788       700.96
  927      741.173        701.3
  928      741.557       702.24
  929      741.942       702.48
  930      742.326       702.24
  931      742.711        702.2
  932      743.095       702.08
  933      743.479       701.58
  934      743.863       701.34
  935      744.247       701.06
  936      744.631       700.54
  937      745.015          700
  938      745.398        699.4
  939      745.782       699.28
  940      746.165       699.98
  941      746.548       700.56
  942      746.932       700.88
  943      747.315       701.64
  944      747.698       702.66
  945      748.081       703.18
  946      748.463       703.56
  947      748.846       703.98
  948      749.229       703.64
  949      749.611       702.86
  950      749.993       702.14
  951      750.376        701.3
  952      750.758       700.62
  953       751.14       700.74
  954      751.522       701.18
  955      751.904        701.6
  956      752.285       702.38
  957      752.667        702.8
  958      753.049       702.72
  959       753.43       702.28
  960      753.811          702
  961      754.193       701.88
  962      754.574       702.34
  963      754.955       703.12
  964      755.336       703.46
  965      755.717          703
  966      756.097       701.96
  967      756.478        700.5
  968      756.858       699.04
  969      757.239        698.4
  970      757.619        698.5
  971      757.999        698.7
  972      758.379       699.24
  973      758.759       700.06
  974      759.139       700.36
  975      759.519       700.22
  976      759.899       700.38
  977      760.278       700.56
  978      760.658       700.78
  979      761.037       701.06
  980      761.417       701.32
  981      761.796       701.32
  982      762.175       701.46
  983      762.554       701.64
  984      762.933       702.04
  985      763.311       702.64
  986       763.69       703.48
  987      764.068       703.76
  988      764.447       703.26
  989      764.825        702.5
  990      765.203       701.94
  991      765.582        701.2
  992       765.96       700.26
  993      766.338       699.74
  994      766.715       699.74
  995      767.093       699.28
  996      767.471       698.64
  997      767.848       698.88
  998      768.226       699.52
  999      768.603       699.72
 1000       768.98       700.22
 1001      769.357       701.16
 1002      769.734       701.74
 1003      770.111       702.08
 1004      770.488       702.46
 1005      770.864       702.68
 1006      771.241       702.98
 1007      771.617       703.44
 1008      771.994       703.58
 1009       772.37        703.5
 1010      772.746        703.3
 1011      773.122       702.94
 1012      773.498       702.64
 1013      773.874       702.54
 1014       774.25        702.8
 1015      774.625       703.22
 1016      775.001       703.18
 1017      775.376       702.56
 1018      775.751       702.02
 1019      776.127       701.18
 1020      776.502       700.54
 1021      776.877       700.74
 1022      777.252       701.24
 1023      777.626       701.34
 1024      778.001       701.56
 1025      778.375        701.6
 1026       778.75       701.28
 1027      779.124       701.14
 1028      779.499       701.16
 1029      779.873       701.06
 1030      780.247       700.92
 1031      780.621       700.88
 1032      780.994       700.82
 1033      781.368          701
 1034      781.742       701.26
 1035      782.115       701.34
 1036      782.489       701.28
 1037      782.862       701.14
 1038      783.235       700.78
 1039      783.608       700.42
 1040      783.981       700.56
 1041      784.354       700.84
 1042      784.727       701.12
 1043        785.1       701.62
 1044      785.472       702.14
 1045      785.845       702.02
 1046      786.217        701.3
 1047      786.589       700.84
 1048      786.961        700.8
 1049      787.333       700.74
 1050      787.705       700.98
 1051      788.077       701.48
 1052      788.449       701.36
 1053       788.82       700.82
 1054      789.192        700.4
 1055      789.563        699.9
 1056      789.934       699.94
 1057      790.306       700.62
 1058      790.677       701.14
 1059      791.048       701.78
 1060      791.419       702.84
 1061      791.789        703.2
 1062       792.16       703.08
 1063       792.53       702.72
 1064      792.901       701.62
 1065      793.271       700.54
 1066      793.641        700.2
 1067      794.012       700.02
 1068      794.382       699.88
 1069      794.751       699.98
 1070      795.121        699.9
 1071      795.491       699.46
 1072      795.861       698.88
 1073       796.23       698.88
 1074      796.599       699.08
 1075      796.969        699.6
 1076      797.338       700.38
 1077      797.707       701.36
 1078      798.076       702.04
 1079      798.445        702.4
 1080      798.813       701.98
 1081      799.182       701.38
 1082       799.55       701.18
 1083      799.919       700.86
 1084      800.287       700.88
 1085      800.655       700.96
 1086      801.023        701.1
 1087      801.391       701.62
 1088      801.759       702.26
 1089      802.127       702.84
 1090      802.495        703.4
 1091      802.862       703.68
 1092       803.23       703.26
 1093      803.597        702.8
 1094      803.964       702.04
 1095      804.331       701.14
 1096      804.698        700.4
 1097      805.065        699.4
 1098      805.432       697.96
 1099      805.799       697.14
 1100      806.165       697.42
 1101      806.532       697.82
 1102      806.898       698.38
 1103      807.264       699.28
 1104      807.631       700.14
 1105      807.997       700.42
 1106      808.363       700.32
 1107      808.728        700.2
 1108      809.094        700.2
 1109       809.46       700.04
 1110      809.825          700
 1111      810.191       700.56
 1112      810.556        701.2
 1113      810.921       700.98
 1114      811.286       700.96
 1115      811.651       701.34
 1116      812.016       701.24
 1117      812.381       700.98
 1118      812.745       701.76
 1119       813.11       702.34
 1120      813.474       702.54
 1121      813.839       702.88
 1122      814.203       702.92
 1123      814.567        702.6
 1124      814.931        702.5
 1125      815.295       703.08
 1126      815.659       703.68
 1127      816.022       704.48
 1128      816.386       705.28
 1129      816.749       705.52
 1130      817.113       704.56
 1131      817.476       703.72
 1132      817.839       703.16
 1133      818.202       702.62
 1134      818.565       702.06
 1135      818.928       701.92
 1136      819.291       701.82
 1137      819.653       701.62
 1138      820.016        701.7
 1139      820.378        702.2
 1140       820.74       702.62
 1141      821.102       702.68
 1142      821.464       702.42
 1143      821.826       701.94
 1144      822.188       701.36
 1145       822.55        700.9
 1146      822.912       700.84
 1147      823.273       701.24
 1148      823.634       701.56
 1149      823.996          702
 1150      824.357        702.7
 1151      824.718       702.82
 1152      825.079       702.68
 1153       825.44       702.56
 1154      825.801       702.34
 1155      826.161       701.78
 1156      826.522       701.38
 1157      826.882       700.92
 1158      827.242       700.78
 1159      827.603       700.76
 1160      827.963       700.66
 1161      828.323       700.92
 1162      828.682       701.62
 1163      829.042       702.32
 1164      829.402       702.68
 1165      829.761       702.68
 1166      830.121       702.22
 1167       830.48       701.56
 1168      830.839       700.34
 1169      831.198       699.18
 1170      831.557       699.02
 1171      831.916        699.1
 1172      832.275       698.82
 1173      832.634        699.2
 1174      832.992       700.32
 1175      833.351       701.06
 1176      833.709       701.26
 1177      834.067        701.5
 1178      834.425       701.58
 1179      834.783       700.96
 1180      835.141       700.02
 1181      835.499       699.64
 1182      835.857        699.8
 1183      836.214       699.88
 1184      836.572       700.36
 1185      836.929       700.78
 1186      837.286        701.1
 1187      837.644       700.92
 1188      838.001       700.64
 1189      838.357        700.3
 1190      838.714       700.26
 1191      839.071       700.32
 1192      839.428       700.62
 1193      839.784        700.6
 1194       840.14       700.36
 1195      840.497       700.26
 1196      840.853       700.38
 1197      841.209       700.52
 1198      841.565       701.16
 1199       841.92       701.74
 1200      842.276        702.2
 1201      842.632       702.42
 1202      842.987       702.56
 1203      843.343        702.6
 1204      843.698        702.9
 1205      844.053       702.92
 1206      844.408       702.36
 1207      844.763       701.64
 1208      845.118        701.1
 1209      845.472       700.42
 1210      845.827       699.92
 1211      846.181       700.16
 1212      846.536       700.98
 1213       846.89       701.88
 1214      847.244       702.96
 1215      847.598       703.94
 1216      847.952       704.64
 1217      848.306       705.18
 1218       848.66       704.86
 1219      849.013       703.86
 1220      849.367       703.32
 1221       849.72       702.86
 1222      850.073       701.84
 1223      850.427       701.54
 1224       850.78       701.82
 1225      851.133       701.76
 1226      851.485       701.62
 1227      851.838        701.5
 1228      852.191       701.04
 1229      852.543       700.82
 1230      852.896       700.72
 1231      853.248       700.66
 1232        853.6       700.96
 1233      853.952       701.24
 1234      854.304       701.52
 1235      854.656       701.82
 1236      855.007          702
 1237      855.359       701.92
 1238       855.71       702.08
 1239      856.062       702.38
 1240      856.413       702.44
 1241      856.764        702.4
 1242      857.115       702.54
 1243      857.466       702.32
 1244      857.817       701.56
 1245      858.168       700.66
 1246      858.518       699.88
 1247      858.869       699.46
 1248      859.219       699.82
 1249      859.569       700.06
 1250       859.92       700.44
 1251       860.27       700.84
 1252      860.619       700.86
 1253      860.969       700.42
 1254      861.319       700.14
 1255      861.669       700.24
 1256      862.018       700.88
 1257      862.367       701.64
 1258      862.717       702.44
 1259      863.066       703.46
 1260      863.415       704.22
 1261      863.764       704.44
 1262      864.112       704.46
 1263      864.461       704.22
 1264       864.81        703.5
 1265      865.158       702.42
 1266      865.507       701.38
 1267      865.855       700.38
 1268      866.203       699.78
 1269      866.551       700.12
 1270      866.899        700.8
 1271      867.247       701.22
 1272      867.594       701.66
 1273      867.942       702.04
 1274      868.289        701.6
 1275      868.637        701.4
 1276      868.984       702.04
 1277      869.331       702.54
 1278      869.678       702.44
 1279      870.025        702.2
 1280      870.372       701.74
 1281      870.718        700.9
 1282      871.065       700.62
 1283      871.411       701.18
 1284      871.758       702.02
 1285      872.104       702.58
 1286       872.45       702.78
 1287      872.796       702.52
 1288      873.142       702.28
 1289      873.488          702
 1290      873.833        701.6
 1291      874.179       700.96
 1292      874.524       700.22
 1293      874.869        699.3
 1294      875.215       698.92
 1295       875.56        699.4
 1296      875.905       700.86
 1297       876.25       702.66
 1298      876.594       703.92
 1299      876.939       704.74
 1300      877.283       704.84
 1301      877.628       703.96
 1302      877.972       703.04
 1303      878.316       702.38
 1304       878.66       701.48
 1305      879.004        700.7
 1306      879.348       700.82
 1307      879.692          701
 1308      880.035       700.88
 1309      880.379       700.58
 1310      880.722       700.38
 1311      881.066       699.72
 1312      881.409       699.14
 1313      881.752       699.06
 1314      882.095       699.34
 1315      882.438       699.48
 1316       882.78       699.36
 1317      883.123        699.1
 1318      883.465       699.04
 1319      883.808       699.26
 1320       884.15       699.96
 1321      884.492       700.88
 1322      884.834        701.5
 1323      885.176        701.5
 1324      885.518       701.04
 1325      885.859       700.62
 1326      886.201       700.92
 1327      886.542       701.76
 1328      886.884       703.04
 1329      887.225       704.54
 1330      887.566        705.4
 1331      887.907       705.58
 1332      888.248        705.8
 1333      888.589       705.84
 1334      888.929       705.84
 1335       889.27       705.86
 1336       889.61       705.54
 1337      889.951       705.26
 1338      890.291       705.88
 1339      890.631       706.14
 1340      890.971        705.8
 1341      891.311       705.36
 1342       891.65       704.82
 1343       891.99       703.78
 1344      892.329       702.84
 1345      892.669        702.1
 1346      893.008        701.8
 1347      893.347       701.42
 1348      893.686          701
 1349      894.025       701.12
 1350      894.364       702.06
 1351      894.703        702.7
 1352      895.041       702.84
 1353       895.38       703.02
 1354      895.718          703
 1355      896.056       702.94
 1356      896.395       703.54
 1357      896.733       704.32
 1358      897.071        704.3
 1359      897.408       704.36
 1360      897.746       704.16
 1361      898.084        703.1
 1362      898.421        702.3
 1363      898.758       702.26
 1364      899.095       701.76
 1365      899.433       701.26
 1366       899.77        701.4
 1367      900.106       701.64
 1368      900.443       701.62
 1369       900.78       701.46
 1370      901.116       700.92
 1371      901.453       700.24
 1372      901.789       699.28
 1373      902.125       698.44
 1374      902.461       698.32
 1375      902.797       698.82
 1376      903.133        699.6
 1377      903.469       700.44
 1378      903.804       701.02
 1379       904.14        701.4
 1380      904.475        701.8
 1381       904.81       701.88
 1382      905.146       702.12
 1383      905.481       702.38
 1384      905.815       702.26
 1385       906.15       702.02
 1386      906.485        701.6
 1387      906.819       700.72
 1388      907.154        699.9
 1389      907.488        699.1
 1390      907.822       698.04
 1391      908.156        697.3
 1392       908.49       697.14
 1393      908.824       697.26
 1394      909.158        697.8
 1395      909.492        698.5
 1396      909.825       699.34
 1397      910.159       700.22
 1398      910.492       700.96
 1399      910.825       701.44
 1400      911.158        701.5
 1401      911.491       701.22
 1402      911.824       700.52
 1403      912.157       699.78
 1404      912.489       699.64
 1405      912.822       699.92
 1406      913.154       699.92
 1407      913.486       699.82
 1408      913.818       699.88
 1409       914.15       699.62
 1410      914.482       699.44
 1411      914.814       699.58
 1412      915.146       699.94
 1413      915.477          700
 1414      915.809       700.06
 1415       916.14       700.24
 1416      916.471       700.66
 1417      916.802       701.14
 1418      917.133       701.68
 1419      917.464       701.92
 1420      917.795       701.72
 1421      918.125       701.16
 1422      918.456       700.58
 1423      918.786       700.14
 1424      919.116       699.88
 1425      919.446        699.8
 1426      919.776       699.58
 1427      920.106       699.46
 1428      920.436       699.42
 1429      920.766       699.26
 1430      921.095        699.2
 1431      921.425       699.44
 1432      921.754        699.5
 1433      922.083        699.2
 1434      922.412       699.02
 1435      922.741       698.96
 1436       923.07       699.24
 1437      923.399       699.56
 1438      923.727       699.88
 1439      924.056       700.36
 1440      924.384        700.7
 1441      924.713        700.5
 1442      925.041       700.06
 1443      925.369       699.58
 1444      925.697       698.68
 1445      926.024       697.56
 1446      926.352       696.96
 1447       926.68       696.92
 1448      927.007       697.42
 1449      927.334       698.42
 1450      927.662       699.96
 1451      927.989        701.2
 1452      928.316        701.8
 1453      928.643       701.78
 1454      928.969        701.3
 1455      929.296       700.42
 1456      929.622       699.34
 1457      929.949       698.84
 1458      930.275       698.96
 1459      930.601       698.92
 1460      930.927        698.8
 1461      931.253       699.16
 1462      931.579       699.46
 1463      931.905       699.14
 1464       932.23       699.18
 1465      932.556        699.7
 1466      932.881       699.88
 1467      933.206       699.66
 1468      933.531       699.28
 1469      933.856       698.62
 1470      934.181       697.74
 1471      934.506       697.32
 1472       934.83       697.08
 1473      935.155       697.04
 1474      935.479       697.42
 1475      935.803       697.88
 1476      936.128       698.36
 1477      936.452        699.3
 1478      936.775       700.46
 1479      937.099       701.18
 1480      937.423       701.24
 1481      937.746       701.02
 1482       938.07       700.94
 1483      938.393       701.08
 1484      938.716       701.26
 1485      939.039       702.06
 1486      939.362       702.64
 1487      939.685       702.42
 1488      940.008       701.88
 1489      940.331       701.42
 1490      940.653       701.18
 1491      940.975       700.72
 1492      941.298       700.22
 1493       941.62       700.34
 1494      941.942       701.14
 1495      942.264       701.94
 1496      942.585          703
 1497      942.907        704.1
 1498      943.229       704.38
 1499       943.55        703.6
 1500      943.871        702.4
 1501      944.192       701.64
 1502      944.513       701.38
 1503      944.834        701.6
 1504      945.155       701.88
 1505      945.476       701.42
 1506      945.796       700.36
 1507      946.117        699.1
 1508      946.437        697.8
 1509      946.757        697.5
 1510      947.078       698.68
 1511      947.398       700.22
 1512      947.717       701.74
 1513      948.037       702.82
 1514      948.357       703.44
 1515      948.676       703.36
 1516      948.996       702.72
 1517      949.315       701.66
 1518      949.634       700.92
 1519      949.953        700.1
 1520      950.272       699.14
 1521      950.591       698.94
 1522      950.909        699.5
 1523      951.228       699.68
 1524      951.546       699.56
 1525      951.865       699.78
 1526      952.183       699.86
 1527      952.501       699.42
 1528      952.819       699.26
 1529      953.137       699.36
 1530      953.454       699.54
 1531      953.772       699.58
 1532      954.089       699.52
 1533      954.407       699.64
 1534      954.724        699.8
 1535      955.041        699.2
 1536      955.358       698.84
 1537      955.675        699.3
 1538      955.992       700.02
 1539      956.308       700.98
 1540      956.625        702.3
 1541      956.941       703.34
 1542      957.257        703.5
 1543      957.574        703.1
 1544       957.89       702.74
 1545      958.206       702.98
 1546      958.521        703.2
 1547      958.837       703.36
 1548      959.152       703.54
 1549      959.468        703.2
 1550      959.783       702.08
 1551      960.098       701.06
 1552      960.413       700.78
 1553      960.728       700.88
 1554      961.043       701.02
 1555      961.358       701.28
 1556      961.672       701.36
 1557      961.987        700.8
 1558      962.301       700.24
 1559      962.615       699.94
 1560       962.93       699.94
 1561      963.244       700.16
 1562      963.557       700.98
 1563      963.871       702.06
 1564      964.185       702.78
 1565      964.498       702.96
 1566      964.812       702.84
 1567      965.125        702.4
 1568      965.438        701.8
 1569      965.751        701.4
 1570      966.064        701.3
 1571      966.377       701.98
 1572      966.689       702.58
 1573      967.002       702.62
 1574      967.314       702.58
 1575      967.626       702.56
 1576      967.939       702.14
 1577      968.251       701.82
 1578      968.563       701.38
 1579      968.874        700.8
 1580      969.186       700.16
 1581      969.498       699.38
 1582      969.809       698.44
 1583       970.12       697.88
 1584      970.431       698.04
 1585      970.743        698.3
 1586      971.053       698.72
 1587      971.364       699.48
 1588      971.675        700.2
 1589      971.986       700.24
 1590      972.296       700.14
 1591      972.606       700.18
 1592      972.917       700.22
 1593      973.227       700.16
 1594      973.537       700.54
 1595      973.847          701
 1596      974.156        700.3
 1597      974.466       698.78
 1598      974.775       697.92
 1599      975.085       697.28
 1600      975.394       697.06
 1601      975.703       697.88
 1602      976.012       699.22
 1603      976.321       699.98
 1604       976.63       700.54
 1605      976.938       701.18
 1606      977.247       701.38
 1607      977.555       701.28
 1608      977.863        701.4
 1609      978.172       701.58
 1610       978.48       701.36
 1611      978.787        701.6
 1612      979.095       702.58
 1613      979.403       703.02
 1614       979.71       703.24
 1615      980.018        703.5
 1616      980.325       702.98
 1617      980.632       702.04
 1618      980.939       701.36
 1619      981.246       700.74
 1620      981.553        700.4
 1621       981.86       700.84
 1622      982.166       701.68
 1623      982.473        702.7
 1624      982.779        703.1
 1625      983.085       702.94
 1626      983.391        702.5
 1627      983.697       701.36
 1628      984.003       700.12
 1629      984.309        699.5
 1630      984.614       699.36
 1631       984.92       699.46
 1632      985.225        699.8
 1633       985.53       700.12
 1634      985.835        700.6
 1635       986.14       701.18
 1636      986.445       701.16
 1637       986.75       700.96
 1638      987.054       701.06
 1639      987.359       701.14
 1640      987.663          701
 1641      987.967       701.08
 1642      988.271       701.64
 1643      988.575       702.02
 1644      988.879          702
 1645      989.183        701.9
 1646      989.487       702.02
 1647       989.79       701.84
 1648      990.093          701
 1649      990.397       699.98
 1650        990.7       699.34
 1651      991.003          699
 1652      991.306       698.38
 1653      991.608       698.28
 1654      991.911       698.62
 1655      992.213       698.74
 1656      992.516       698.68
 1657      992.818       698.88
 1658       993.12       698.68
 1659      993.422       698.26
 1660      993.724       697.94
 1661      994.026        697.9
 1662      994.327          698
 1663      994.629       698.48
 1664       994.93       698.92
 1665      995.232       698.92
 1666      995.533       698.44
 1667      995.834       697.96
 1668      996.135       697.92
 1669      996.435       698.02
 1670      996.736       698.58
 1671      997.036       699.72
 1672      997.337       700.82
 1673      997.637       701.66
 1674      997.937        702.3
 1675      998.237        702.4
 1676      998.537       702.44
 1677      998.837       702.28
 1678      999.137       701.64
 1679      999.436       700.88
 1680      999.735        700.3
 1681      1000.03       699.64
 1682      1000.33       699.74
 1683      1000.63       700.26
 1684      1000.93       700.98
 1685      1001.23       701.64
 1686      1001.53       701.98
 1687      1001.83       701.56
 1688      1002.13       701.16
 1689      1002.42          701
 1690      1002.72       700.88
 1691      1003.02       700.56
 1692      1003.32       699.74
 1693      1003.62        698.7
 1694      1003.91       697.62
 1695      1004.21       696.66
 1696      1004.51       696.14
 1697      1004.81          697
 1698       1005.1       698.52
 1699       1005.4       699.78
 1700       1005.7       701.06
 1701      1005.99       702.42
 1702      1006.29       703.28
 1703      1006.59       703.68
 1704      1006.88       704.14
 1705      1007.18       704.32
 1706      1007.48       703.84
 1707      1007.77       702.88
 1708      1008.07        701.6
 1709      1008.36       700.28
 1710      1008.66       699.32
 1711      1008.95       698.66
 1712      1009.25       698.12
 1713      1009.55          698
 1714      1009.84       698.68
 1715      1010.14        699.6
 1716      1010.43        700.7
 1717      1010.73       701.96
 1718      1011.02       702.64
 1719      1011.31       702.78
 1720      1011.61       702.54
 1721       1011.9        701.9
 1722       1012.2       701.34
 1723      1012.49        701.1
 1724      1012.79       700.96
 1725      1013.08        700.9
 1726      1013.37       700.82
 1727      1013.67        700.5
 1728      1013.96       700.32
 1729      1014.25       699.92
 1730      1014.55       699.68
 1731      1014.84        700.1
 1732      1015.13       700.68
 1733      1015.42       700.98
 1734      1015.72       701.24
 1735      1016.01       701.68
 1736       1016.3       701.94
 1737      1016.59        702.2
 1738      1016.89       702.52
 1739      1017.18       702.84
 1740      1017.47        702.8
 1741      1017.76       702.72
 1742      1018.05       702.58
 1743      1018.35        702.2
 1744      1018.64       701.88
 1745      1018.93       701.28
 1746      1019.22       700.24
 1747      1019.51        699.4
 1748       1019.8       698.74
 1749      1020.09       697.96
 1750      1020.38       697.88
 1751      1020.67        698.4
 1752      1020.96       698.66
 1753      1021.25        698.6
 1754      1021.54       698.82
 1755      1021.83       698.92
 1756      1022.12       698.68
 1757      1022.41       698.76
 1758       1022.7       699.14
 1759      1022.99       699.34
 1760      1023.28        699.3
 1761      1023.57       699.14
 1762      1023.86       698.72
 1763      1024.15       698.82
 1764      1024.44       699.08
 1765      1024.73       699.16
 1766      1025.02       699.32
 1767       1025.3       699.78
 1768      1025.59       699.92
 1769      1025.88        699.9
 1770      1026.17       700.02
 1771      1026.46       700.36
 1772      1026.74        700.4
 1773      1027.03       700.62
 1774      1027.32       701.06
 1775      1027.61        701.6
 1776      1027.89       702.22
 1777      1028.18       703.16
 1778      1028.47       703.34
 1779      1028.76        702.8
 1780      1029.04       702.14
 1781      1029.33       701.12
 1782      1029.62        699.9
 1783       1029.9       699.32
 1784      1030.19       699.44
 1785      1030.47        699.5
 1786      1030.76       699.28
 1787      1031.05       699.34
 1788      1031.33          700
 1789      1031.62       700.24
 1790       1031.9       700.36
 1791      1032.19       700.68
 1792      1032.47        700.5
 1793      1032.76       699.88
 1794      1033.04       699.48
 1795      1033.33       699.52
 1796      1033.61       700.14
 1797       1033.9       700.64
 1798      1034.18       701.06
 1799      1034.47        701.8
 1800      1034.75       702.04
 1801      1035.04       702.04
 1802      1035.32       702.58
 1803       1035.6       702.76
 1804      1035.89       702.74
 1805      1036.17        702.8
 1806      1036.45       702.62
 1807      1036.74       702.44
 1808      1037.02       702.92
 1809       1037.3       703.24
 1810      1037.59       704.04
 1811      1037.87       705.02
 1812      1038.15       705.08
 1813      1038.44       704.34
 1814      1038.72       703.78
 1815         1039       702.78
 1816      1039.28          701
 1817      1039.56       699.84
 1818      1039.85       699.54
 1819      1040.13       699.54
 1820      1040.41        699.7
 1821      1040.69       700.34
 1822      1040.97          701
 1823      1041.25       701.24
 1824      1041.54       700.98
 1825      1041.82       700.32
 1826       1042.1       700.06
 1827      1042.38       699.84
 1828      1042.66       699.74
 1829      1042.94       700.14
 1830      1043.22       701.16
 1831       1043.5        702.1
 1832      1043.78       702.76
 1833      1044.06       702.96
 1834      1044.34       703.02
 1835      1044.62       702.64
 1836       1044.9       701.92
 1837      1045.18       701.54
 1838      1045.46       701.16
 1839      1045.74       700.52
 1840      1046.02       700.42
 1841       1046.3       700.52
 1842      1046.58       700.28
 1843      1046.85       700.64
 1844      1047.13       700.98
 1845      1047.41       700.78
 1846      1047.69       700.76
 1847      1047.97       701.22
 1848      1048.25       701.18
 1849      1048.52       700.74
 1850       1048.8       700.36
 1851      1049.08       699.94
 1852      1049.36       699.26
 1853      1049.63       698.88
 1854      1049.91       698.68
 1855      1050.19        698.5
 1856      1050.47        698.9
 1857      1050.74       700.16
 1858      1051.02       701.34
 1859       1051.3       702.02
 1860      1051.57       702.26
 1861      1051.85          702
 1862      1052.13          701
 1863       1052.4       699.58
 1864      1052.68       698.66
 1865      1052.95       698.62
 1866      1053.23       698.26
 1867      1053.51       698.06
 1868      1053.78       698.52
 1869      1054.06       699.76
 1870      1054.33       701.08
 1871      1054.61       702.54
 1872      1054.88        703.3
 1873      1055.16       703.42
 1874      1055.43        703.1
 1875      1055.71       702.48
 1876      1055.98       701.58
 1877      1056.25       701.12
 1878      1056.53       701.56
 1879       1056.8        701.8
 1880      1057.08       702.18
 1881      1057.35       703.08
 1882      1057.62       703.86
 1883       1057.9       703.98
 1884      1058.17       704.14
 1885      1058.45       703.76
 1886      1058.72       702.84
 1887      1058.99       701.98
 1888      1059.26       701.18
 1889      1059.54        700.5
 1890      1059.81        700.4
 1891      1060.08       700.44
 1892      1060.35       700.58
 1893      1060.63       701.38
 1894       1060.9       702.24
 1895      1061.17       702.62
 1896      1061.44       703.48
 1897      1061.71       704.24
 1898      1061.99       703.78
 1899      1062.26        702.5
 1900      1062.53       701.36
 1901       1062.8       700.16
 1902      1063.07        698.9
 1903      1063.34       698.12
 1904      1063.61        698.4
 1905      1063.88       698.82
 1906      1064.15       699.42
 1907      1064.42       700.38
 1908       1064.7       701.22
 1909      1064.97       701.46
 1910      1065.24       701.36
 1911      1065.51       700.66
 1912      1065.78        699.7
 1913      1066.04        698.8
 1914      1066.31       698.28
 1915      1066.58       698.24
 1916      1066.85       698.46
 1917      1067.12       698.64
 1918      1067.39       699.12
 1919      1067.66       699.34
 1920      1067.93        699.2
 1921       1068.2       699.08
 1922      1068.47       699.32
 1923      1068.73       699.68
 1924         1069        700.5
 1925      1069.27       701.54
 1926      1069.54       701.88
 1927      1069.81       701.22
 1928      1070.07       700.42
 1929      1070.34       699.56
 1930      1070.61       698.96
 1931      1070.88       699.14
 1932      1071.14        699.9
 1933      1071.41        700.5
 1934      1071.68       701.02
 1935      1071.94        701.3
 1936      1072.21          701
 1937      1072.48        700.4
 1938      1072.74       700.08
 1939      1073.01          700
 1940      1073.28        700.2
 1941      1073.54       700.78
 1942      1073.81       702.22
 1943      1074.07       703.72
 1944      1074.34       704.14
 1945       1074.6       703.74
 1946      1074.87       702.86
 1947      1075.13       701.44
 1948       1075.4       699.96
 1949      1075.66       698.88
 1950      1075.93       698.08
 1951      1076.19       697.92
 1952      1076.46          698
 1953      1076.72       698.38
 1954      1076.99       698.88
 1955      1077.25       699.36
 1956      1077.52       699.84
 1957      1077.78       700.52
 1958      1078.04       700.72
 1959      1078.31       700.58
 1960      1078.57        700.4
 1961      1078.83        699.9
 1962       1079.1       698.68
 1963      1079.36        697.5
 1964      1079.62       696.74
 1965      1079.89       696.46
 1966      1080.15       696.86
 1967      1080.41       697.66
 1968      1080.67        698.4
 1969      1080.94       699.28
 1970       1081.2        699.9
 1971      1081.46       699.86
 1972      1081.72       699.88
 1973      1081.98       699.62
 1974      1082.24       698.96
 1975      1082.51       698.48
 1976      1082.77       698.06
 1977      1083.03       697.44
 1978      1083.29       697.18
 1979      1083.55        697.2
 1980      1083.81          697
 1981      1084.07       696.58
 1982      1084.33        696.8
 1983      1084.59       697.32
 1984      1084.85        697.9
 1985      1085.11       698.58
 1986      1085.37       699.64
 1987      1085.63       700.36
 1988      1085.89       700.68
 1989      1086.15       700.78
 1990      1086.41       700.88
 1991      1086.67       700.84
 1992      1086.93       700.64
 1993      1087.19       700.58
 1994      1087.45       700.56
 1995      1087.71       700.28
 1996      1087.97       699.88
 1997      1088.23       699.28
 1998      1088.48       698.72
 1999      1088.74       698.36
 2000         1089       698.16
 2001      1089.26       698.36
 2002      1089.52       698.84
 2003      1089.77       699.18
 2004      1090.03       699.44
 2005      1090.29       699.66
 2006      1090.55       699.76
 2007       1090.8       699.78
 2008      1091.06       699.56
 2009      1091.32       699.28
 2010      1091.57       699.12
 2011      1091.83       698.42
 2012      1092.09       697.54
 2013      1092.34       697.26
 2014       1092.6        697.5
 2015      1092.86       697.52
 2016      1093.11        697.7
 2017      1093.37       698.12
 2018      1093.62       698.88
 2019      1093.88        699.4
 2020      1094.13        699.8
 2021      1094.39       700.38
 2022      1094.65        700.7
 2023       1094.9       699.98
 2024      1095.16       699.24
 2025      1095.41       699.14
 2026      1095.66       699.32
 2027      1095.92       699.58
 2028      1096.17       699.86
 2029      1096.43       700.26
 2030      1096.68       700.86
 2031      1096.94       701.44
 2032      1097.19        701.9
 2033      1097.44       702.24
 2034       1097.7       702.24
 2035      1097.95       701.34
 2036       1098.2        700.4
 2037      1098.46       700.26
 2038      1098.71        700.8
 2039      1098.96       701.28
 2040      1099.22        702.5
 2041      1099.47       703.42
 2042      1099.72       703.22
 2043      1099.97       702.54
 2044      1100.23       702.14
 2045      1100.48        702.2
 2046      1100.73       701.75
 2047      1100.98        701.9
