scansci Spectrometer Data File
--- Measurement Setting ---
Type: Sample Spectrum
Date: Mon Oct 16 15:48:13 2023
User: (Reserved by scansci)
Serial: (Reserved by scansci)
Channel: No. 11
Integration Time: 1
Average: 10
Boxcar: 2
Electrical Dark: No-corrected
Time Normalize: (Reserved by scansci)
Dual-beam: (Reserved by scansci)
Reference Ch: (Reserved by scansci)
--- Measurement Data ---
Pixel   Wavelength   Intensity
    0        162.5      600.433
    1      162.985        600.3
    2      163.469       600.24
    3      163.954       600.34
    4      164.439       600.62
    5      164.923       601.16
    6      165.408          602
    7      165.892        602.9
    8      166.377       603.66
    9      166.861       603.76
   10      167.345       603.32
   11       167.83        602.2
   12      168.314        600.6
   13      168.798       599.12
   14      169.282       598.04
   15      169.766        597.5
   16       170.25        597.5
   17      170.734       597.52
   18      171.218       597.74
   19      171.702        598.3
   20      172.185       598.36
   21      172.669       598.54
   22      173.153        599.3
   23      173.636        599.8
   24       174.12       600.28
   25      174.603       600.96
   26      175.087       601.04
   27       175.57       601.02
   28      176.053       600.92
   29      176.537       600.52
   30       177.02       600.36
   31      177.503       600.54
   32      177.986       600.72
   33      178.469       601.04
   34      178.952        601.6
   35      179.435       602.52
   36      179.918       603.14
   37      180.401       603.42
   38      180.884       603.48
   39      181.366        603.2
   40      181.849       602.48
   41      182.332       601.94
   42      182.814        601.6
   43      183.297       601.52
   44      183.779       601.08
   45      184.262       600.12
   46      184.744        599.1
   47      185.226        598.3
   48      185.708       597.28
   49      186.191       596.82
   50      186.673       596.78
   51      187.155        597.2
   52      187.637       597.46
   53      188.119        597.5
   54        188.6       597.54
   55      189.082       597.96
   56      189.564       598.34
   57      190.046       598.64
   58      190.527       599.16
   59      191.009       599.42
   60      191.491       599.54
   61      191.972          600
   62      192.454       600.88
   63      192.935        601.9
   64      193.416       603.04
   65      193.897       603.84
   66      194.379       603.78
   67       194.86       603.72
   68      195.341       603.56
   69      195.822       602.78
   70      196.303       602.08
   71      196.784       601.88
   72      197.265       601.22
   73      197.746       600.92
   74      198.226       601.58
   75      198.707        602.3
   76      199.188       602.24
   77      199.668       602.04
   78      200.149       601.74
   79      200.629       601.46
   80       201.11        601.5
   81       201.59       602.08
   82       202.07       602.86
   83       202.55       603.38
   84      203.031       603.64
   85      203.511       603.62
   86      203.991       603.78
   87      204.471       603.84
   88      204.951       604.22
   89      205.431       605.18
   90       205.91       605.84
   91       206.39       606.04
   92       206.87       606.42
   93      207.349       606.46
   94      207.829       605.82
   95      208.309       605.56
   96      208.788       605.78
   97      209.267       606.04
   98      209.747       606.24
   99      210.226        606.6
  100      210.705       607.26
  101      211.185        608.4
  102      211.664       609.88
  103      212.143       610.68
  104      212.622        610.9
  105      213.101       610.88
  106      213.579       610.22
  107      214.058       608.92
  108      214.537       608.62
  109      215.016       608.78
  110      215.494       608.76
  111      215.973       608.98
  112      216.452       609.54
  113       216.93       610.12
  114      217.408       610.82
  115      217.887       611.62
  116      218.365       612.22
  117      218.843        612.2
  118      219.321       611.68
  119      219.799        611.2
  120      220.278       610.74
  121      220.755       610.34
  122      221.233        610.3
  123      221.711       610.38
  124      222.189       609.78
  125      222.667          609
  126      223.144       608.74
  127      223.622       608.52
  128        224.1        608.5
  129      224.577       609.12
  130      225.055       609.94
  131      225.532       609.88
  132      226.009       609.78
  133      226.486       609.68
  134      226.964       608.96
  135      227.441       607.82
  136      227.918        606.8
  137      228.395       606.14
  138      228.872       605.52
  139      229.349       605.36
  140      229.826       605.58
  141      230.302        605.9
  142      230.779        605.8
  143      231.256       605.58
  144      231.732       605.18
  145      232.209       604.34
  146      232.685        603.5
  147      233.162       603.06
  148      233.638       602.68
  149      234.114       602.18
  150       234.59       601.88
  151      235.066       601.86
  152      235.543       601.44
  153      236.019       601.32
  154      236.495       601.98
  155       236.97       602.82
  156      237.446       603.34
  157      237.922        603.9
  158      238.398        604.3
  159      238.873        604.3
  160      239.349        604.1
  161      239.824        604.1
  162        240.3       604.66
  163      240.775       605.26
  164      241.251       605.26
  165      241.726        605.4
  166      242.201       605.84
  167      242.676       605.78
  168      243.151        605.3
  169      243.626       604.98
  170      244.101        604.6
  171      244.576       604.18
  172      245.051       604.28
  173      245.526        604.6
  174          246       605.48
  175      246.475       606.64
  176       246.95       607.48
  177      247.424       607.68
  178      247.899       607.44
  179      248.373       607.26
  180      248.847       607.04
  181      249.321       606.66
  182      249.796        606.6
  183       250.27       607.26
  184      250.744        607.5
  185      251.218        607.6
  186      251.692       607.54
  187      252.166       607.16
  188      252.639       606.44
  189      253.113       605.92
  190      253.587        605.3
  191       254.06       604.82
  192      254.534        604.5
  193      255.007        603.8
  194      255.481       603.14
  195      255.954       603.24
  196      256.427       603.64
  197      256.901        603.6
  198      257.374       603.62
  199      257.847        603.6
  200       258.32       603.22
  201      258.793       602.96
  202      259.266        603.2
  203      259.739       603.56
  204      260.211       603.74
  205      260.684       603.76
  206      261.157       603.28
  207      261.629       602.16
  208      262.102       601.62
  209      262.574       601.42
  210      263.046       600.78
  211      263.519       601.08
  212      263.991       602.56
  213      264.463       603.48
  214      264.935       603.74
  215      265.407       604.22
  216      265.879       604.18
  217      266.351       603.54
  218      266.823       602.74
  219      267.295       601.84
  220      267.766       600.86
  221      268.238       600.06
  222       268.71        599.7
  223      269.181       599.94
  224      269.653       600.96
  225      270.124       602.38
  226      270.595       603.62
  227      271.066       604.36
  228      271.538        605.2
  229      272.009       605.78
  230       272.48       605.36
  231      272.951        604.8
  232      273.422          605
  233      273.892       604.72
  234      274.363        604.5
  235      274.834       605.38
  236      275.305       606.38
  237      275.775       606.74
  238      276.246       607.06
  239      276.716       607.28
  240      277.186       607.22
  241      277.657       607.04
  242      278.127       606.66
  243      278.597       606.34
  244      279.067       605.88
  245      279.537        605.3
  246      280.007       604.72
  247      280.477       604.62
  248      280.947       604.74
  249      281.417       604.84
  250      281.886       605.04
  251      282.356       605.22
  252      282.825       605.08
  253      283.295        605.2
  254      283.764       605.62
  255      284.234       605.58
  256      284.703       605.48
  257      285.172       605.62
  258      285.641        605.6
  259       286.11       605.84
  260      286.579       606.18
  261      287.048       606.34
  262      287.517       605.86
  263      287.986       604.92
  264      288.454       603.38
  265      288.923       602.26
  266      289.392        601.9
  267       289.86       602.12
  268      290.329       602.78
  269      290.797       603.88
  270      291.265       604.96
  271      291.734       605.64
  272      292.202       605.88
  273       292.67        605.5
  274      293.138       604.76
  275      293.606       603.88
  276      294.074       602.52
  277      294.541        601.6
  278      295.009        601.8
  279      295.477       602.38
  280      295.944        602.7
  281      296.412       603.26
  282      296.879        603.6
  283      297.347       603.04
  284      297.814       602.34
  285      298.281       602.14
  286      298.749       602.36
  287      299.216        602.4
  288      299.683       602.34
  289       300.15       602.34
  290      300.616        602.7
  291      301.083       602.94
  292       301.55       603.68
  293      302.017       604.56
  294      302.483       605.16
  295       302.95       604.98
  296      303.416       604.32
  297      303.883       603.58
  298      304.349       603.56
  299      304.815       603.48
  300      305.281       603.62
  301      305.748        603.8
  302      306.214       603.68
  303       306.68       603.08
  304      307.146       602.36
  305      307.611       601.84
  306      308.077        601.5
  307      308.543        601.3
  308      309.008        601.7
  309      309.474       602.72
  310      309.939       603.36
  311      310.405       603.82
  312       310.87       604.32
  313      311.335        604.2
  314        311.8       603.24
  315      312.266       602.38
  316      312.731        601.8
  317      313.196       601.14
  318       313.66       601.06
  319      314.125       602.16
  320       314.59       603.54
  321      315.055        604.8
  322      315.519       605.68
  323      315.984          606
  324      316.448       605.34
  325      316.913       604.02
  326      317.377       603.14
  327      317.841       603.36
  328      318.305       604.24
  329      318.769        605.7
  330      319.233       607.58
  331      319.697       608.82
  332      320.161       608.62
  333      320.625       607.68
  334      321.089       606.74
  335      321.552       605.56
  336      322.016       604.72
  337      322.479       605.16
  338      322.943       605.44
  339      323.406       604.92
  340      323.869        604.5
  341      324.333       604.44
  342      324.796       604.44
  343      325.259       604.94
  344      325.722       605.38
  345      326.185       605.66
  346      326.647       605.82
  347       327.11       605.66
  348      327.573       605.36
  349      328.035       605.68
  350      328.498       606.14
  351       328.96       606.38
  352      329.423       606.68
  353      329.885       606.38
  354      330.347       605.96
  355       330.81        606.3
  356      331.272       606.56
  357      331.734       606.38
  358      332.196       606.76
  359      332.657       607.22
  360      333.119       607.16
  361      333.581        607.1
  362      334.043       607.52
  363      334.504       608.32
  364      334.966       608.84
  365      335.427       609.14
  366      335.888       609.48
  367       336.35       609.08
  368      336.811        608.3
  369      337.272       607.88
  370      337.733        607.8
  371      338.194        607.7
  372      338.655       608.38
  373      339.115       609.36
  374      339.576       610.28
  375      340.037       611.08
  376      340.497        611.6
  377      340.958       611.32
  378      341.418       610.78
  379      341.879        610.2
  380      342.339       610.06
  381      342.799       610.38
  382      343.259       610.98
  383      343.719       611.58
  384      344.179       612.24
  385      344.639       612.48
  386      345.099       612.72
  387      345.559       612.92
  388      346.018       612.98
  389      346.478       613.42
  390      346.937       614.26
  391      347.397       614.76
  392      347.856       614.38
  393      348.315       613.62
  394      348.774       612.74
  395      349.234       611.36
  396      349.693       610.22
  397      350.152       610.16
  398       350.61        610.3
  399      351.069        609.9
  400      351.528       609.56
  401      351.987       608.84
  402      352.445        607.9
  403      352.904       607.32
  404      353.362       606.98
  405       353.82       606.94
  406      354.279       607.82
  407      354.737       608.86
  408      355.195        609.1
  409      355.653        609.1
  410      356.111       609.14
  411      356.569       608.26
  412      357.027       607.06
  413      357.484       606.56
  414      357.942        606.3
  415      358.399       605.66
  416      358.857       605.72
  417      359.314       606.24
  418      359.772        606.5
  419      360.229        606.5
  420      360.686       605.88
  421      361.143       604.78
  422        361.6       604.24
  423      362.057       604.08
  424      362.514       604.38
  425      362.971       605.64
  426      363.427       606.76
  427      363.884       607.28
  428       364.34       607.68
  429      364.797       607.46
  430      365.253        607.2
  431      365.709       607.68
  432      366.166        607.6
  433      366.622       607.18
  434      367.078          607
  435      367.534       606.16
  436       367.99       604.52
  437      368.445       603.18
  438      368.901        602.1
  439      369.357       601.12
  440      369.812       600.84
  441      370.268       601.04
  442      370.723        601.5
  443      371.179        602.1
  444      371.634       602.68
  445      372.089       602.54
  446      372.544       602.02
  447      372.999       601.88
  448      373.454       602.02
  449      373.909       602.02
  450      374.364       602.46
  451      374.818       603.26
  452      375.273       603.28
  453      375.727       603.04
  454      376.182       603.44
  455      376.636       603.66
  456       377.09        603.8
  457      377.545        604.5
  458      377.999       605.12
  459      378.453       605.18
  460      378.907       604.84
  461      379.361       604.36
  462      379.814       603.82
  463      380.268       603.16
  464      380.722       602.32
  465      381.175       602.18
  466      381.629       602.46
  467      382.082       602.54
  468      382.535       602.82
  469      382.989       603.34
  470      383.442       603.66
  471      383.895       603.96
  472      384.348       604.64
  473      384.801       604.72
  474      385.253       604.48
  475      385.706       603.72
  476      386.159       602.58
  477      386.611        601.2
  478      387.064       600.74
  479      387.516          601
  480      387.968          602
  481      388.421       603.38
  482      388.873       604.76
  483      389.325       605.58
  484      389.777       606.24
  485      390.229       606.84
  486      390.681       606.98
  487      391.132       606.28
  488      391.584       605.56
  489      392.035       604.66
  490      392.487       603.42
  491      392.938        602.3
  492       393.39       601.78
  493      393.841       601.42
  494      394.292       601.28
  495      394.743       601.82
  496      395.194       603.04
  497      395.645       604.26
  498      396.096        605.3
  499      396.546        605.9
  500      396.997       605.16
  501      397.448        603.5
  502      397.898       602.66
  503      398.349       601.98
  504      398.799       601.28
  505      399.249       601.06
  506      399.699       601.16
  507      400.149       600.26
  508      400.599       599.14
  509      401.049       598.38
  510      401.499       598.04
  511      401.949       597.54
  512      402.398       597.52
  513      402.848       598.14
  514      403.297       598.88
  515      403.747       599.88
  516      404.196       601.24
  517      404.645       602.64
  518      405.094       603.96
  519      405.543       605.22
  520      405.992       605.74
  521      406.441       605.16
  522       406.89       603.98
  523      407.339       602.62
  524      407.787       601.52
  525      408.236       600.86
  526      408.684       601.18
  527      409.132       602.32
  528      409.581       603.26
  529      410.029       603.56
  530      410.477       603.86
  531      410.925       604.06
  532      411.373       604.06
  533      411.821       604.22
  534      412.269       605.08
  535      412.716       605.72
  536      413.164       605.64
  537      413.611       605.18
  538      414.059       604.26
  539      414.506       602.84
  540      414.953       602.48
  541        415.4        603.4
  542      415.847       604.62
  543      416.294       605.92
  544      416.741        607.4
  545      417.188        608.1
  546      417.635       607.58
  547      418.081       606.82
  548      418.528       606.48
  549      418.974       605.68
  550      419.421        604.5
  551      419.867       603.74
  552      420.313       602.96
  553      420.759       602.22
  554      421.205        602.3
  555      421.651       602.42
  556      422.097       602.34
  557      422.543        602.4
  558      422.989       602.18
  559      423.434        601.8
  560       423.88        602.3
  561      424.325          603
  562       424.77       603.58
  563      425.216       604.48
  564      425.661       604.78
  565      426.106       604.44
  566      426.551       604.58
  567      426.996        604.3
  568       427.44       603.26
  569      427.885       602.48
  570       428.33       601.94
  571      428.774       601.26
  572      429.219       601.32
  573      429.663       602.08
  574      430.107       602.58
  575      430.551       601.96
  576      430.996        601.4
  577       431.44       601.12
  578      431.883       600.74
  579      432.327        600.7
  580      432.771        601.5
  581      433.215       602.12
  582      433.658        602.6
  583      434.102       603.26
  584      434.545        603.7
  585      434.988       603.96
  586      435.431       604.32
  587      435.875       604.32
  588      436.318       604.18
  589      436.761        604.4
  590      437.203       604.28
  591      437.646        603.8
  592      438.089       603.42
  593      438.531          603
  594      438.974       602.72
  595      439.416        602.9
  596      439.859       603.08
  597      440.301       603.06
  598      440.743       602.46
  599      441.185       602.24
  600      441.627       603.22
  601      442.069       604.22
  602       442.51        604.8
  603      442.952        605.9
  604      443.394       606.04
  605      443.835       604.68
  606      444.277       603.58
  607      444.718       603.12
  608      445.159       602.16
  609        445.6       600.64
  610      446.041       599.52
  611      446.482       598.46
  612      446.923       597.58
  613      447.364        597.3
  614      447.804        598.3
  615      448.245       599.86
  616      448.685       601.04
  617      449.126       601.48
  618      449.566       601.72
  619      450.006       601.88
  620      450.447       601.88
  621      450.887       601.96
  622      451.326       602.04
  623      451.766       601.84
  624      452.206       601.22
  625      452.646       600.32
  626      453.085       599.32
  627      453.525          599
  628      453.964       599.42
  629      454.403       599.72
  630      454.843       599.96
  631      455.282        600.7
  632      455.721       601.02
  633       456.16       601.02
  634      456.599       600.98
  635      457.037       600.52
  636      457.476          600
  637      457.915       599.76
  638      458.353       599.88
  639      458.791       600.64
  640       459.23        601.9
  641      459.668       602.86
  642      460.106        603.5
  643      460.544       604.04
  644      460.982       604.72
  645       461.42       605.24
  646      461.857       605.22
  647      462.295       605.06
  648      462.733       604.36
  649       463.17       602.58
  650      463.607       600.96
  651      464.045       600.38
  652      464.482       600.38
  653      464.919       600.22
  654      465.356       600.62
  655      465.793       601.04
  656       466.23       601.04
  657      466.666       600.78
  658      467.103        601.4
  659      467.539       601.96
  660      467.976       601.96
  661      468.412        601.7
  662      468.848       601.74
  663      469.284        601.5
  664       469.72       601.42
  665      470.156       601.44
  666      470.592       601.56
  667      471.028       601.96
  668      471.464        602.7
  669      471.899       603.34
  670      472.335       604.02
  671       472.77        604.4
  672      473.205          604
  673      473.641       603.44
  674      474.076       602.78
  675      474.511       601.88
  676      474.946       601.54
  677       475.38       601.72
  678      475.815        601.5
  679       476.25       601.42
  680      476.684       602.14
  681      477.119        602.7
  682      477.553       602.72
  683      477.987       602.66
  684      478.421       602.62
  685      478.856       602.38
  686      479.289       602.42
  687      479.723       602.78
  688      480.157       603.08
  689      480.591       603.02
  690      481.024       602.94
  691      481.458        602.8
  692      481.891        602.6
  693      482.324       602.42
  694      482.758        602.3
  695      483.191       602.28
  696      483.624       602.12
  697      484.057       601.98
  698      484.489        601.9
  699      484.922       602.04
  700      485.355        602.1
  701      485.787       602.18
  702       486.22       602.08
  703      486.652       601.94
  704      487.084       601.82
  705      487.516       601.94
  706      487.948       602.26
  707       488.38       602.44
  708      488.812       602.32
  709      489.244       601.48
  710      489.676       600.02
  711      490.107       598.46
  712      490.539       597.34
  713       490.97        596.7
  714      491.401       596.78
  715      491.832       597.72
  716      492.263       598.96
  717      492.694       599.94
  718      493.125       601.18
  719      493.556       602.58
  720      493.987       602.88
  721      494.417       602.52
  722      494.848          602
  723      495.278        600.7
  724      495.708       599.44
  725      496.139          599
  726      496.569        598.9
  727      496.999       598.96
  728      497.429       599.16
  729      497.858       599.28
  730      498.288       599.36
  731      498.718       599.72
  732      499.147       600.32
  733      499.577       601.26
  734      500.006       602.18
  735      500.435       603.26
  736      500.864       603.72
  737      501.293       603.84
  738      501.722       604.44
  739      502.151       605.02
  740       502.58       605.04
  741      503.008        605.1
  742      503.437       605.26
  743      503.865        604.9
  744      504.293       604.08
  745      504.722       603.14
  746       505.15       602.28
  747      505.578       601.42
  748      506.006       600.74
  749      506.434       600.26
  750      506.861       599.88
  751      507.289       599.74
  752      507.716        599.9
  753      508.144       600.08
  754      508.571       600.62
  755      508.998        601.1
  756      509.425       601.16
  757      509.852       600.92
  758      510.279       600.44
  759      510.706       599.66
  760      511.133       599.32
  761       511.56       599.44
  762      511.986        599.6
  763      512.412       599.86
  764      512.839        600.4
  765      513.265        600.7
  766      513.691       600.92
  767      514.117       601.28
  768      514.543       601.36
  769      514.969       601.14
  770      515.395       600.96
  771       515.82       600.66
  772      516.246       600.62
  773      516.671          601
  774      517.096       600.88
  775      517.522       600.68
  776      517.947       600.72
  777      518.372        600.4
  778      518.797        599.9
  779      519.222       599.92
  780      519.646       599.86
  781      520.071          600
  782      520.495       600.38
  783       520.92       600.64
  784      521.344       601.12
  785      521.768        601.9
  786      522.192       602.02
  787      522.616       601.78
  788       523.04       601.38
  789      523.464       600.52
  790      523.888       599.88
  791      524.311       599.74
  792      524.735          600
  793      525.158       601.16
  794      525.581       602.92
  795      526.005       603.88
  796      526.428        604.3
  797      526.851       604.34
  798      527.274       603.52
  799      527.696        602.2
  800      528.119       601.56
  801      528.542       601.16
  802      528.964       600.98
  803      529.386       601.04
  804      529.809       601.38
  805      530.231       601.78
  806      530.653        602.1
  807      531.075        602.1
  808      531.497       602.14
  809      531.918        602.1
  810       532.34       601.74
  811      532.761       601.58
  812      533.183       601.12
  813      533.604          601
  814      534.025       602.02
  815      534.447       603.36
  816      534.868        604.6
  817      535.289        606.3
  818      535.709       607.24
  819       536.13       606.32
  820      536.551       604.88
  821      536.971       603.34
  822      537.392       601.68
  823      537.812       600.46
  824      538.232       599.78
  825      538.652       599.42
  826      539.072       599.18
  827      539.492       599.14
  828      539.912       599.54
  829      540.331        600.2
  830      540.751       600.62
  831       541.17       601.08
  832       541.59        601.5
  833      542.009       601.14
  834      542.428       600.58
  835      542.847        600.2
  836      543.266        600.1
  837      543.685       600.64
  838      544.104       601.66
  839      544.522       602.46
  840      544.941        603.3
  841      545.359        603.9
  842      545.778       603.46
  843      546.196       602.12
  844      546.614       600.98
  845      547.032       600.18
  846       547.45        599.5
  847      547.867       599.02
  848      548.285       598.88
  849      548.703       599.08
  850       549.12        598.9
  851      549.538        598.3
  852      549.955        597.9
  853      550.372       597.92
  854      550.789        598.1
  855      551.206       598.56
  856      551.623        599.3
  857      552.039       600.08
  858      552.456        600.7
  859      552.873       600.98
  860      553.289       601.04
  861      553.705       601.36
  862      554.121       601.68
  863      554.537       601.82
  864      554.953       602.02
  865      555.369       602.16
  866      555.785       601.96
  867      556.201       601.78
  868      556.616       601.84
  869      557.032       601.66
  870      557.447       601.04
  871      557.862       600.44
  872      558.277       600.42
  873      558.692       601.14
  874      559.107       602.76
  875      559.522       604.64
  876      559.937       605.94
  877      560.351       606.22
  878      560.766       605.56
  879       561.18       604.08
  880      561.595       602.36
  881      562.009       601.18
  882      562.423       600.48
  883      562.837       599.84
  884       563.25       599.76
  885      563.664       600.32
  886      564.078       601.12
  887      564.491       601.94
  888      564.905       602.74
  889      565.318       603.14
  890      565.731       603.44
  891      566.144        603.5
  892      566.557        603.5
  893       566.97       603.62
  894      567.383        603.1
  895      567.795       601.98
  896      568.208          601
  897       568.62       600.38
  898      569.033       599.68
  899      569.445       599.54
  900      569.857        600.1
  901      570.269       600.52
  902      570.681       600.38
  903      571.093       600.68
  904      571.504       601.42
  905      571.916          602
  906      572.327        601.9
  907      572.739       601.94
  908       573.15       601.98
  909      573.561       601.72
  910      573.972        601.7
  911      574.383       602.36
  912      574.794       602.98
  913      575.204       603.06
  914      575.615        602.8
  915      576.025       602.02
  916      576.436       601.24
  917      576.846       600.54
  918      577.256          600
  919      577.666       599.58
  920      578.076        599.8
  921      578.486       600.46
  922      578.896       601.02
  923      579.305       601.54
  924      579.715       602.18
  925      580.124       602.46
  926      580.533       602.34
  927      580.942        602.4
  928      581.351       602.66
  929       581.76        602.8
  930      582.169       602.96
  931      582.578       603.54
  932      582.986       604.12
  933      583.395        604.4
  934      583.803       604.18
  935      584.212       603.86
  936       584.62       603.14
  937      585.028       601.64
  938      585.436        600.5
  939      585.843       600.46
  940      586.251        600.4
  941      586.659       600.08
  942      587.066       600.82
  943      587.474       602.14
  944      587.881       603.34
  945      588.288       604.44
  946      588.695       605.86
  947      589.102       607.02
  948      589.509       607.16
  949      589.915       606.84
  950      590.322        606.7
  951      590.728       606.42
  952      591.135       606.22
  953      591.541       605.98
  954      591.947       605.44
  955      592.353       604.66
  956      592.759       604.26
  957      593.165       603.52
  958      593.571       602.82
  959      593.976       602.16
  960      594.382       601.38
  961      594.787       600.36
  962      595.192       599.78
  963      595.597       599.84
  964      596.002       600.24
  965      596.407        600.9
  966      596.812       601.26
  967      597.217       601.48
  968      597.621       601.54
  969      598.026       601.06
  970       598.43       600.14
  971      598.834       599.68
  972      599.238       599.32
  973      599.642       599.52
  974      600.046        600.6
  975       600.45        602.1
  976      600.854       603.68
  977      601.257        605.1
  978      601.661       605.26
  979      602.064       604.44
  980      602.467        603.3
  981       602.87       602.26
  982      603.273       601.58
  983      603.676       601.42
  984      604.079       601.58
  985      604.481        601.7
  986      604.884       601.64
  987      605.286       601.78
  988      605.689        601.8
  989      606.091          602
  990      606.493       602.64
  991      606.895          603
  992      607.297       603.34
  993      607.698       603.98
  994        608.1        604.5
  995      608.501       605.06
  996      608.903        605.9
  997      609.304       605.72
  998      609.705        604.9
  999      610.106       604.32
 1000      610.507       604.02
 1001      610.908        603.5
 1002      611.308       603.36
 1003      611.709       603.44
 1004      612.109        603.3
 1005       612.51        603.3
 1006       612.91       603.56
 1007       613.31       603.96
 1008       613.71       604.44
 1009       614.11       604.88
 1010       614.51        605.1
 1011      614.909       604.88
 1012      615.309        604.4
 1013      615.708       604.38
 1014      616.108       604.42
 1015      616.507       604.48
 1016      616.906        605.4
 1017      617.305       606.58
 1018      617.704       607.02
 1019      618.102       607.24
 1020      618.501       607.26
 1021      618.899       607.06
 1022      619.298       606.56
 1023      619.696       606.46
 1024      620.094       606.82
 1025      620.492       606.92
 1026       620.89       606.34
 1027      621.288       605.64
 1028      621.686       604.94
 1029      622.083       604.36
 1030       622.48       604.26
 1031      622.878       604.36
 1032      623.275       604.66
 1033      623.672       604.54
 1034      624.069       604.06
 1035      624.466       603.62
 1036      624.863       603.52
 1037      625.259       603.86
 1038      625.656        605.2
 1039      626.052       607.02
 1040      626.448       608.52
 1041      626.844       609.54
 1042      627.241          610
 1043      627.636       609.62
 1044      628.032       608.56
 1045      628.428        607.1
 1046      628.823       605.62
 1047      629.219       604.52
 1048      629.614       603.78
 1049      630.009       603.58
 1050      630.404       604.48
 1051      630.799       606.04
 1052      631.194        607.4
 1053      631.589        608.2
 1054      631.984       608.24
 1055      632.378       607.26
 1056      632.772       606.08
 1057      633.167       604.58
 1058      633.561       603.26
 1059      633.955       602.32
 1060      634.349        601.4
 1061      634.743       600.68
 1062      635.136       601.34
 1063       635.53       602.98
 1064      635.923       604.46
 1065      636.316       605.76
 1066       636.71        606.7
 1067      637.103        606.4
 1068      637.496       605.24
 1069      637.888       604.74
 1070      638.281       604.86
 1071      638.674       604.92
 1072      639.066       605.58
 1073      639.459       606.52
 1074      639.851        607.2
 1075      640.243       607.62
 1076      640.635       607.68
 1077      641.027       607.24
 1078      641.419       606.58
 1079       641.81       606.22
 1080      642.202       606.36
 1081      642.593       606.98
 1082      642.984       607.94
 1083      643.375       608.64
 1084      643.766       608.82
 1085      644.157       608.88
 1086      644.548       608.98
 1087      644.939       608.84
 1088      645.329       609.06
 1089       645.72       609.34
 1090       646.11       609.22
 1091        646.5        608.9
 1092       646.89       608.56
 1093       647.28        608.3
 1094       647.67       608.58
 1095       648.06        608.9
 1096      648.449        609.4
 1097      648.839       609.82
 1098      649.228       609.88
 1099      649.617       609.86
 1100      650.007       610.58
 1101      650.396       610.96
 1102      650.784       611.36
 1103      651.173       612.12
 1104      651.562        612.9
 1105       651.95       613.36
 1106      652.339       613.86
 1107      652.727       613.82
 1108      653.115       613.44
 1109      653.503       613.04
 1110      653.891       612.58
 1111      654.279       612.56
 1112      654.666       614.02
 1113      655.054       616.24
 1114      655.441       618.46
 1115      655.828       620.44
 1116      656.216       622.46
 1117      656.603       624.36
 1118      656.989       627.06
 1119      657.376       633.04
 1120      657.763       644.18
 1121      658.149        660.7
 1122      658.536       683.42
 1123      658.922        710.5
 1124      659.308       737.94
 1125      659.694       762.26
 1126       660.08          781
 1127      660.466       791.72
 1128      660.852       794.48
 1129      661.237        792.5
 1130      661.623       788.36
 1131      662.008        780.9
 1132      662.393       770.46
 1133      662.778       759.96
 1134      663.163       749.08
 1135      663.548       738.28
 1136      663.933       731.38
 1137      664.317        729.3
 1138      664.702       728.98
 1139      665.086       729.44
 1140       665.47       730.64
 1141      665.854        731.4
 1142      666.238       731.14
 1143      666.622       732.28
 1144      667.006        735.4
 1145      667.389       738.68
 1146      667.773       743.82
 1147      668.156       751.74
 1148      668.539       761.66
 1149      668.923       774.64
 1150      669.305       793.88
 1151      669.688       825.66
 1152      670.071       928.52
 1153      670.454       1356.4
 1154      670.836       2415.3
 1155      671.218      4182.68
 1156      671.601         6875
 1157      671.983      9894.42
 1158      672.365        12586
 1159      672.747        14642
 1160      673.128      15982.3
 1161       673.51        16383
 1162      673.891        16383
 1163      674.273        16383
 1164      674.654        16383
 1165      675.035      15417.5
 1166      675.416      13669.5
 1167      675.797      11409.9
 1168      676.177      8828.26
 1169      676.558       6046.5
 1170      676.938      4104.74
 1171      677.319       2866.9
 1172      677.699      2092.28
 1173      678.079      1608.32
 1174      678.459      1303.46
 1175      678.839      1109.82
 1176      679.219       985.46
 1177      679.598       904.08
 1178      679.978       851.06
 1179      680.357       818.18
 1180      680.736       800.08
 1181      681.115       791.08
 1182      681.494       787.72
 1183      681.873       789.02
 1184      682.252       795.74
 1185       682.63        808.1
 1186      683.009       822.68
 1187      683.387       836.26
 1188      683.765        849.2
 1189      684.143        858.8
 1190      684.521       859.62
 1191      684.899       854.22
 1192      685.277       846.66
 1193      685.654       836.02
 1194      686.032        823.1
 1195      686.409       812.08
 1196      686.786       802.66
 1197      687.163       793.42
 1198       687.54        783.4
 1199      687.917       771.36
 1200      688.294       757.36
 1201       688.67       743.14
 1202      689.046       728.76
 1203      689.423       714.56
 1204      689.799       701.66
 1205      690.175       689.76
 1206      690.551       679.36
 1207      690.927       670.86
 1208      691.302          664
 1209      691.678          658
 1210      692.053       653.12
 1211      692.428        649.4
 1212      692.804       646.24
 1213      693.179       643.14
 1214      693.553       640.38
 1215      693.928       637.88
 1216      694.303       635.46
 1217      694.677       633.14
 1218      695.052       631.26
 1219      695.426       629.36
 1220        695.8       627.08
 1221      696.174       624.52
 1222      696.548       622.42
 1223      696.921       620.14
 1224      697.295       617.54
 1225      697.669       615.44
 1226      698.042       613.92
 1227      698.415       612.42
 1228      698.788       611.72
 1229      699.161       612.14
 1230      699.534       612.74
 1231      699.907        612.8
 1232      700.279       612.16
 1233      700.652       611.06
 1234      701.024       609.94
 1235      701.396       608.98
 1236      701.768       608.24
 1237       702.14       608.18
 1238      702.512       608.14
 1239      702.883       607.56
 1240      703.255       606.84
 1241      703.626       606.42
 1242      703.998       605.94
 1243      704.369       605.22
 1244       704.74       605.08
 1245      705.111       605.06
 1246      705.481       604.68
 1247      705.852       603.84
 1248      706.222       603.42
 1249      706.593       603.02
 1250      706.963       602.96
 1251      707.333       603.32
 1252      707.703       603.66
 1253      708.073        603.8
 1254      708.442       603.86
 1255      708.812       603.28
 1256      709.181       602.66
 1257      709.551       602.66
 1258       709.92       603.32
 1259      710.289       604.28
 1260      710.658       605.28
 1261      711.027       605.16
 1262      711.395       604.06
 1263      711.764       602.42
 1264      712.132       600.44
 1265        712.5       599.16
 1266      712.869       598.84
 1267      713.236       599.06
 1268      713.604       599.82
 1269      713.972       600.86
 1270       714.34       601.52
 1271      714.707       602.12
 1272      715.074       602.82
 1273      715.442        603.1
 1274      715.809       603.04
 1275      716.176       602.42
 1276      716.542        601.7
 1277      716.909       601.54
 1278      717.276       600.84
 1279      717.642       599.78
 1280      718.008       599.74
 1281      718.374       599.86
 1282       718.74        599.6
 1283      719.106       600.16
 1284      719.472       601.48
 1285      719.838       601.84
 1286      720.203       601.86
 1287      720.568       602.06
 1288      720.934        602.2
 1289      721.299       601.86
 1290      721.664       601.84
 1291      722.029        602.2
 1292      722.393       602.54
 1293      722.758       602.58
 1294      723.122       602.32
 1295      723.486       602.04
 1296      723.851       601.98
 1297      724.215       602.02
 1298      724.578       602.46
 1299      724.942       602.94
 1300      725.306       602.62
 1301      725.669       601.82
 1302      726.033        601.3
 1303      726.396       600.48
 1304      726.759       599.46
 1305      727.122       599.66
 1306      727.485       600.32
 1307      727.847       600.16
 1308       728.21       600.14
 1309      728.572       601.06
 1310      728.935       601.82
 1311      729.297       602.06
 1312      729.659       603.12
 1313      730.021       604.32
 1314      730.382        604.8
 1315      730.744        604.1
 1316      731.105       603.28
 1317      731.467       602.18
 1318      731.828       600.68
 1319      732.189       599.48
 1320       732.55       599.18
 1321      732.911        599.2
 1322      733.271       598.62
 1323      733.632       598.16
 1324      733.992       597.64
 1325      734.352       597.04
 1326      734.713       596.88
 1327      735.072       597.64
 1328      735.432       598.62
 1329      735.792        599.2
 1330      736.152       600.04
 1331      736.511       601.28
 1332       736.87       601.82
 1333      737.229       601.22
 1334      737.589       600.54
 1335      737.947       599.72
 1336      738.306       598.46
 1337      738.665       598.02
 1338      739.023       598.98
 1339      739.382       600.14
 1340       739.74        600.9
 1341      740.098       601.44
 1342      740.456       601.38
 1343      740.814       600.54
 1344      741.171       600.14
 1345      741.529       599.98
 1346      741.886        599.7
 1347      742.244       599.78
 1348      742.601       600.48
 1349      742.958       601.32
 1350      743.314       602.04
 1351      743.671       602.32
 1352      744.028       601.96
 1353      744.384       601.26
 1354       744.74       600.12
 1355      745.097       598.78
 1356      745.453       597.44
 1357      745.809       596.22
 1358      746.164       595.38
 1359       746.52       595.16
 1360      746.875       595.92
 1361      747.231       597.14
 1362      747.586       598.36
 1363      747.941       599.42
 1364      748.296       600.12
 1365      748.651       599.86
 1366      749.005       599.38
 1367       749.36        599.3
 1368      749.714       598.96
 1369      750.069       598.72
 1370      750.423       599.26
 1371      750.777       599.74
 1372       751.13       599.52
 1373      751.484       599.64
 1374      751.838        599.9
 1375      752.191        599.7
 1376      752.544       599.52
 1377      752.897       599.48
 1378       753.25        599.2
 1379      753.603        599.1
 1380      753.956       599.12
 1381      754.309       599.42
 1382      754.661       600.08
 1383      755.013       600.72
 1384      755.365       601.36
 1385      755.717        602.2
 1386      756.069       602.68
 1387      756.421        602.7
 1388      756.773       602.52
 1389      757.124        601.7
 1390      757.476       600.52
 1391      757.827       599.34
 1392      758.178       598.06
 1393      758.529       597.16
 1394      758.879       596.74
 1395       759.23       596.56
 1396      759.581       596.82
 1397      759.931       597.68
 1398      760.281       598.52
 1399      760.631       599.34
 1400      760.981        600.7
 1401      761.331       601.74
 1402      761.681        601.9
 1403       762.03       601.48
 1404      762.379       601.24
 1405      762.729        600.6
 1406      763.078       599.54
 1407      763.427        599.2
 1408      763.776        599.5
 1409      764.124       599.32
 1410      764.473       599.28
 1411      764.821       599.84
 1412      765.169       600.16
 1413      765.517       600.26
 1414      765.865       600.04
 1415      766.213       599.36
 1416      766.561       599.12
 1417      766.909       599.04
 1418      767.256       599.06
 1419      767.603       599.54
 1420       767.95       600.34
 1421      768.297       600.88
 1422      768.644       601.28
 1423      768.991        601.6
 1424      769.337       601.34
 1425      769.684       600.64
 1426       770.03       599.48
 1427      770.376       598.46
 1428      770.722       597.76
 1429      771.068        597.7
 1430      771.414       597.46
 1431      771.759       597.48
 1432      772.105          598
 1433       772.45        598.2
 1434      772.795       598.54
 1435       773.14       599.26
 1436      773.485       599.82
 1437       773.83       599.96
 1438      774.174        599.9
 1439      774.519       599.06
 1440      774.863       598.18
 1441      775.207       597.68
 1442      775.551       597.28
 1443      775.895       597.22
 1444      776.239       597.74
 1445      776.582       598.32
 1446      776.926       599.28
 1447      777.269       600.24
 1448      777.612       600.68
 1449      777.955        601.2
 1450      778.298       601.48
 1451      778.641       601.22
 1452      778.983        600.9
 1453      779.326        600.7
 1454      779.668       600.36
 1455       780.01       600.14
 1456      780.352       599.96
 1457      780.694       600.14
 1458      781.036        600.6
 1459      781.377       600.56
 1460      781.719       600.54
 1461       782.06       600.48
 1462      782.401       599.98
 1463      782.742       599.68
 1464      783.083       600.14
 1465      783.424       600.46
 1466      783.764       600.16
 1467      784.105       599.82
 1468      784.445       599.58
 1469      784.785       599.28
 1470      785.125       599.42
 1471      785.465       599.98
 1472      785.805        600.4
 1473      786.144       600.18
 1474      786.484       599.94
 1475      786.823        599.6
 1476      787.162       599.48
 1477      787.501       599.74
 1478       787.84        599.8
 1479      788.178       599.54
 1480      788.517        599.4
 1481      788.855        599.2
 1482      789.194       599.04
 1483      789.532       599.38
 1484       789.87       600.18
 1485      790.208       600.76
 1486      790.545       600.76
 1487      790.883       600.38
 1488       791.22       600.56
 1489      791.557       600.42
 1490      791.894       599.92
 1491      792.231        599.2
 1492      792.568       598.84
 1493      792.905       598.46
 1494      793.241       598.24
 1495      793.578       598.56
 1496      793.914       599.44
 1497       794.25       600.22
 1498      794.586       600.22
 1499      794.922        599.9
 1500      795.257       599.24
 1501      795.593       598.76
 1502      795.928       598.28
 1503      796.263       597.68
 1504      796.598       596.62
 1505      796.933       596.14
 1506      797.268        596.3
 1507      797.603       596.58
 1508      797.937       597.72
 1509      798.271       599.44
 1510      798.606       600.68
 1511       798.94       601.26
 1512      799.274        601.2
 1513      799.607       600.34
 1514      799.941       599.74
 1515      800.274       599.38
 1516      800.608       599.14
 1517      800.941          599
 1518      801.274       599.68
 1519      801.607       600.56
 1520      801.939       600.94
 1521      802.272        601.1
 1522      802.604       601.36
 1523      802.936       601.08
 1524      803.269        600.1
 1525      803.601       599.46
 1526      803.932        599.1
 1527      804.264       598.86
 1528      804.596       598.62
 1529      804.927       598.74
 1530      805.258       598.86
 1531      805.589       598.56
 1532       805.92       598.66
 1533      806.251       599.04
 1534      806.582       598.96
 1535      806.912       598.58
 1536      807.242       598.24
 1537      807.573       597.72
 1538      807.903          597
 1539      808.232       596.38
 1540      808.562        596.3
 1541      808.892       596.74
 1542      809.221       596.82
 1543      809.551       596.64
 1544       809.88       597.02
 1545      810.209       597.44
 1546      810.538       597.58
 1547      810.866       597.58
 1548      811.195       597.82
 1549      811.523       598.02
 1550      811.851       597.98
 1551       812.18        598.1
 1552      812.507       598.34
 1553      812.835       598.58
 1554      813.163        598.6
 1555       813.49       598.62
 1556      813.818       598.62
 1557      814.145       598.98
 1558      814.472       599.06
 1559      814.799       598.54
 1560      815.126        598.3
 1561      815.452       598.18
 1562      815.779       598.04
 1563      816.105        597.9
 1564      816.431          598
 1565      816.757       598.04
 1566      817.083       598.04
 1567      817.409       597.84
 1568      817.734       597.86
 1569       818.06          598
 1570      818.385        597.7
 1571       818.71       597.38
 1572      819.035       597.24
 1573       819.36       597.22
 1574      819.685        597.3
 1575      820.009       597.56
 1576      820.333        597.9
 1577      820.658       598.36
 1578      820.982       598.68
 1579      821.305       598.78
 1580      821.629       598.62
 1581      821.953        598.1
 1582      822.276       597.14
 1583        822.6       596.38
 1584      822.923       595.56
 1585      823.246       594.94
 1586      823.569       594.82
 1587      823.891       595.06
 1588      824.214       595.16
 1589      824.536       595.74
 1590      824.858       596.34
 1591       825.18       596.48
 1592      825.502       596.16
 1593      825.824        595.6
 1594      826.146       594.94
 1595      826.467        594.4
 1596      826.789        593.9
 1597       827.11       594.02
 1598      827.431       594.58
 1599      827.752       595.54
 1600      828.072       596.68
 1601      828.393       597.72
 1602      828.713       597.94
 1603      829.034       598.14
 1604      829.354       598.16
 1605      829.674       598.22
 1606      829.993       598.28
 1607      830.313        598.9
 1608      830.633       599.36
 1609      830.952        599.5
 1610      831.271       599.02
 1611       831.59       598.68
 1612      831.909        598.4
 1613      832.228       597.92
 1614      832.546       597.26
 1615      832.865       596.72
 1616      833.183       596.04
 1617      833.501       595.56
 1618      833.819       595.18
 1619      834.137       595.06
 1620      834.455       595.12
 1621      834.772       595.16
 1622      835.089       594.94
 1623      835.407       595.02
 1624      835.724       595.98
 1625       836.04       597.06
 1626      836.357        597.9
 1627      836.674        598.9
 1628       836.99       599.64
 1629      837.306       598.92
 1630      837.623        597.5
 1631      837.939          596
 1632      838.254       594.96
 1633       838.57       594.82
 1634      838.886       595.62
 1635      839.201       596.48
 1636      839.516       597.28
 1637      839.831        597.4
 1638      840.146       596.02
 1639      840.461       594.56
 1640      840.775       594.28
 1641       841.09       594.92
 1642      841.404       595.82
 1643      841.718       597.44
 1644      842.032       598.88
 1645      842.346       599.76
 1646      842.659       600.18
 1647      842.973       600.16
 1648      843.286       600.22
 1649      843.599       600.04
 1650      843.912       598.88
 1651      844.225       597.62
 1652      844.538       596.82
 1653      844.851       595.04
 1654      845.163       593.02
 1655      845.475       592.36
 1656      845.787       592.66
 1657      846.099       592.64
 1658      846.411       593.32
 1659      846.723       593.88
 1660      847.034        593.9
 1661      847.345       593.44
 1662      847.657       592.96
 1663      847.968       592.68
 1664      848.278       593.22
 1665      848.589       594.18
 1666        848.9        595.1
 1667       849.21       595.94
 1668       849.52       596.66
 1669       849.83        597.1
 1670       850.14       597.12
 1671       850.45       596.92
 1672      850.759       596.78
 1673      851.069       596.44
 1674      851.378       595.96
 1675      851.687       595.54
 1676      851.996       594.92
 1677      852.305       594.58
 1678      852.614       594.86
 1679      852.922       595.26
 1680       853.23       595.86
 1681      853.539       596.48
 1682      853.847       596.74
 1683      854.154        596.6
 1684      854.462          597
 1685       854.77        597.4
 1686      855.077       597.62
 1687      855.384       598.06
 1688      855.691       598.34
 1689      855.998       597.64
 1690      856.305       597.06
 1691      856.612        597.1
 1692      856.918       597.32
 1693      857.224        597.8
 1694       857.53       598.82
 1695      857.836        599.4
 1696      858.142       599.44
 1697      858.448       599.16
 1698      858.753       598.96
 1699      859.059        598.5
 1700      859.364        598.3
 1701      859.669       598.44
 1702      859.974       598.68
 1703      860.278       598.48
 1704      860.583       598.62
 1705      860.887       598.62
 1706      861.192       598.38
 1707      861.496       598.26
 1708        861.8       598.54
 1709      862.103       598.52
 1710      862.407       597.86
 1711       862.71       597.12
 1712      863.014       596.38
 1713      863.317        595.9
 1714       863.62       595.62
 1715      863.922       596.08
 1716      864.225       597.04
 1717      864.527       597.92
 1718       864.83        598.3
 1719      865.132       598.78
 1720      865.434       598.98
 1721      865.736        598.9
 1722      866.037       598.62
 1723      866.339       598.52
 1724       866.64       598.04
 1725      866.941       597.58
 1726      867.242       597.54
 1727      867.543       597.72
 1728      867.844        597.5
 1729      868.145       597.62
 1730      868.445       597.66
 1731      868.745       597.26
 1732      869.045       596.96
 1733      869.345       596.88
 1734      869.645       596.74
 1735      869.944        596.9
 1736      870.244        596.7
 1737      870.543       596.58
 1738      870.842       596.84
 1739      871.141       597.54
 1740       871.44       598.74
 1741      871.739        599.9
 1742      872.037       600.24
 1743      872.335       600.06
 1744      872.634       599.12
 1745      872.931        597.3
 1746      873.229          596
 1747      873.527       595.42
 1748      873.824       595.18
 1749      874.122       595.14
 1750      874.419       595.82
 1751      874.716       596.62
 1752      875.013       597.06
 1753      875.309       597.24
 1754      875.606       597.44
 1755      875.902       597.24
 1756      876.199       596.96
 1757      876.495       596.66
 1758       876.79       595.86
 1759      877.086          595
 1760      877.382       594.72
 1761      877.677       595.14
 1762      877.972       596.02
 1763      878.267       597.14
 1764      878.562        598.2
 1765      878.857       599.08
 1766      879.152       599.36
 1767      879.446        599.4
 1768       879.74       599.86
 1769      880.034       600.36
 1770      880.328       600.06
 1771      880.622       599.02
 1772      880.916       598.14
 1773      881.209       597.62
 1774      881.502       597.06
 1775      881.795       596.78
 1776      882.088        597.2
 1777      882.381        597.6
 1778      882.674       597.26
 1779      882.966       596.84
 1780      883.258        596.5
 1781      883.551       596.28
 1782      883.843       595.62
 1783      884.134        595.2
 1784      884.426        595.4
 1785      884.717        596.1
 1786      885.009       596.66
 1787        885.3       597.14
 1788      885.591       597.32
 1789      885.882        597.3
 1790      886.172        597.2
 1791      886.463       596.84
 1792      886.753       597.18
 1793      887.043       598.06
 1794      887.333       598.36
 1795      887.623        597.9
 1796      887.913        597.7
 1797      888.202       597.72
 1798      888.492       597.34
 1799      888.781          597
 1800       889.07       597.26
 1801      889.359       597.52
 1802      889.647        597.8
 1803      889.936       598.04
 1804      890.224        598.2
 1805      890.512       597.86
 1806        890.8        596.9
 1807      891.088        595.7
 1808      891.376       595.32
 1809      891.663       595.42
 1810      891.951       595.82
 1811      892.238        596.4
 1812      892.525       596.26
 1813      892.812       595.52
 1814      893.099        594.6
 1815      893.385       593.64
 1816      893.671       593.56
 1817      893.958       594.38
 1818      894.244       595.32
 1819       894.53          596
 1820      894.815       596.52
 1821      895.101       596.56
 1822      895.386       596.56
 1823      895.671        596.5
 1824      895.956       596.68
 1825      896.241       597.18
 1826      896.526       597.24
 1827       896.81       596.32
 1828      897.095       595.74
 1829      897.379       595.62
 1830      897.663       595.68
 1831      897.947       596.54
 1832      898.231       598.06
 1833      898.514       598.84
 1834      898.798          599
 1835      899.081       599.18
 1836      899.364       598.72
 1837      899.647       597.48
 1838      899.929        596.6
 1839      900.212       596.56
 1840      900.494        596.5
 1841      900.776        596.3
 1842      901.058        596.9
 1843       901.34       597.64
 1844      901.622       597.38
 1845      901.904       596.58
 1846      902.185        596.1
 1847      902.466       595.56
 1848      902.747       594.92
 1849      903.028       594.58
 1850      903.309       594.68
 1851      903.589       594.66
 1852       903.87       594.54
 1853       904.15        595.3
 1854       904.43       596.18
 1855       904.71       596.88
 1856      904.989       597.92
 1857      905.269       598.94
 1858      905.548       599.08
 1859      905.827       599.12
 1860      906.106       599.06
 1861      906.385        598.7
 1862      906.664        598.5
 1863      906.942       598.04
 1864      907.221       597.42
 1865      907.499       596.76
 1866      907.777        595.9
 1867      908.055       595.44
 1868      908.332       596.04
 1869       908.61        597.4
 1870      908.887       598.58
 1871      909.164       599.08
 1872      909.441       599.12
 1873      909.718       598.48
 1874      909.995       596.94
 1875      910.271        595.5
 1876      910.548       594.94
 1877      910.824        594.4
 1878        911.1       593.98
 1879      911.375       594.44
 1880      911.651       595.82
 1881      911.927        597.4
 1882      912.202        598.5
 1883      912.477        599.3
 1884      912.752       599.42
 1885      913.027       598.38
 1886      913.301       597.44
 1887      913.576       597.48
 1888       913.85       597.98
 1889      914.124        598.5
 1890      914.398          599
 1891      914.672       599.14
 1892      914.945       598.68
 1893      915.219       598.14
 1894      915.492        598.1
 1895      915.765       598.78
 1896      916.038       599.58
 1897      916.311       600.16
 1898      916.583        599.8
 1899      916.856       598.38
 1900      917.128       596.82
 1901        917.4       595.68
 1902      917.672       595.34
 1903      917.944       595.48
 1904      918.215       595.88
 1905      918.486       596.44
 1906      918.758       596.56
 1907      919.029       595.26
 1908      919.299        593.9
 1909       919.57        593.4
 1910      919.841       592.98
 1911      920.111       592.84
 1912      920.381       594.14
 1913      920.651        595.9
 1914      920.921       597.52
 1915      921.191       598.82
 1916       921.46       599.66
 1917      921.729        599.1
 1918      921.999       598.28
 1919      922.268       597.42
 1920      922.536        596.7
 1921      922.805       596.48
 1922      923.073       597.18
 1923      923.342        597.9
 1924       923.61       598.24
 1925      923.878        598.3
 1926      924.145        598.2
 1927      924.413       598.06
 1928       924.68       597.84
 1929      924.948       597.38
 1930      925.215       596.96
 1931      925.482        596.4
 1932      925.748        595.5
 1933      926.015       594.98
 1934      926.281       595.04
 1935      926.547       595.56
 1936      926.813       596.24
 1937      927.079       597.14
 1938      927.345       598.06
 1939       927.61       598.14
 1940      927.876        597.2
 1941      928.141       596.48
 1942      928.406       596.08
 1943      928.671        595.4
 1944      928.935       595.96
 1945        929.2       597.06
 1946      929.464       597.74
 1947      929.728       598.28
 1948      929.992       598.32
 1949      930.256       597.64
 1950       930.52       597.52
 1951      930.783        597.6
 1952      931.046       597.78
 1953      931.309       598.28
 1954      931.572       599.24
 1955      931.835       599.66
 1956      932.097       598.88
 1957       932.36       597.52
 1958      932.622       596.58
 1959      932.884       595.34
 1960      933.146       594.26
 1961      933.408       594.46
 1962      933.669       595.14
 1963       933.93       595.52
 1964      934.192       595.98
 1965      934.453       596.42
 1966      934.713       596.52
 1967      934.974       596.12
 1968      935.234        595.6
 1969      935.495       595.24
 1970      935.755       595.08
 1971      936.015       594.66
 1972      936.274       594.76
 1973      936.534       595.76
 1974      936.793       596.84
 1975      937.053       597.42
 1976      937.312       598.14
 1977      937.571          599
 1978      937.829       599.36
 1979      938.088       598.76
 1980      938.346        598.1
 1981      938.604       597.76
 1982      938.862       596.94
 1983       939.12       596.06
 1984      939.378       595.64
 1985      939.635        595.5
 1986      939.893       595.86
 1987       940.15        596.8
 1988      940.407        597.4
 1989      940.663        598.1
 1990       940.92       598.54
 1991      941.176       598.42
 1992      941.433        598.3
 1993      941.689       598.22
 1994      941.944       597.74
 1995        942.2        597.2
 1996      942.456       596.72
 1997      942.711       596.44
 1998      942.966       596.42
 1999      943.221       596.68
 2000      943.476       597.12
 2001      943.731        597.6
 2002      943.985       597.72
 2003      944.239       597.78
 2004      944.493       597.92
 2005      944.747        598.1
 2006      945.001       597.98
 2007      945.255          598
 2008      945.508          598
 2009      945.761       597.56
 2010      946.014       596.88
 2011      946.267       596.22
 2012       946.52       595.28
 2013      946.772       594.68
 2014      947.025       594.36
 2015      947.277       594.26
 2016      947.529       594.66
 2017      947.781       595.72
 2018      948.032       596.56
 2019      948.284        597.6
 2020      948.535       598.74
 2021      948.786        599.5
 2022      949.037        599.4
 2023      949.288       599.06
 2024      949.538       598.96
 2025      949.789       598.86
 2026      950.039       598.26
 2027      950.289       597.36
 2028      950.539       596.44
 2029      950.788        595.1
 2030      951.038       593.62
 2031      951.287        592.8
 2032      951.536       592.78
 2033      951.785          593
 2034      952.034       593.74
 2035      952.282        595.1
 2036      952.531        596.6
 2037      952.779       597.66
 2038      953.027          598
 2039      953.275        597.4
 2040      953.523       596.38
 2041       953.77       595.32
 2042      954.017       594.12
 2043      954.264       593.48
 2044      954.511       594.16
 2045      954.758       595.16
 2046      955.005        595.3
 2047      955.251      595.967
