scansci Spectrometer Data File
--- Measurement Setting ---
Type: Sample Spectrum
Date: Mon Oct 16 17:49:21 2023
User: (Reserved by scansci)
Serial: (Reserved by scansci)
Channel: No. 11
Integration Time: 1
Average: 10
Boxcar: 2
Electrical Dark: No-corrected
Time Normalize: (Reserved by scansci)
Dual-beam: (Reserved by scansci)
Reference Ch: (Reserved by scansci)
--- Measurement Data ---
Pixel   Wavelength   Intensity
    0        162.5      595.533
    1      162.985       595.25
    2      163.469        595.2
    3      163.954        595.4
    4      164.439       595.54
    5      164.923       595.54
    6      165.408       595.58
    7      165.892       595.54
    8      166.377       595.08
    9      166.861       594.52
   10      167.345       594.14
   11       167.83       594.14
   12      168.314       593.84
   13      168.798       593.12
   14      169.282       592.54
   15      169.766       592.08
   16       170.25       591.28
   17      170.734       590.68
   18      171.218        590.9
   19      171.702       591.26
   20      172.185       591.82
   21      172.669       592.32
   22      173.153       592.54
   23      173.636       592.74
   24       174.12       593.14
   25      174.603       593.14
   26      175.087       593.14
   27       175.57       593.48
   28      176.053       593.32
   29      176.537       592.62
   30       177.02        592.2
   31      177.503       592.08
   32      177.986       592.48
   33      178.469        593.6
   34      178.952        594.7
   35      179.435          595
   36      179.918       594.82
   37      180.401       594.24
   38      180.884       593.02
   39      181.366       591.54
   40      181.849        590.9
   41      182.332       590.86
   42      182.814       590.58
   43      183.297          591
   44      183.779       591.82
   45      184.262       592.14
   46      184.744       592.24
   47      185.226       592.62
   48      185.708       592.52
   49      186.191       592.66
   50      186.673       592.98
   51      187.155       593.46
   52      187.637       594.34
   53      188.119       595.24
   54        188.6       595.98
   55      189.082       597.08
   56      189.564       597.54
   57      190.046       596.84
   58      190.527       595.98
   59      191.009       595.34
   60      191.491       594.38
   61      191.972        593.8
   62      192.454       593.88
   63      192.935        594.2
   64      193.416       594.44
   65      193.897       594.42
   66      194.379       594.38
   67       194.86       594.12
   68      195.341       593.58
   69      195.822       592.96
   70      196.303       592.48
   71      196.784       591.52
   72      197.265        590.5
   73      197.746          590
   74      198.226        589.6
   75      198.707       589.56
   76      199.188       590.44
   77      199.668       591.84
   78      200.149       592.88
   79      200.629       593.84
   80       201.11       594.54
   81       201.59       594.44
   82       202.07       593.96
   83       202.55       593.12
   84      203.031        591.8
   85      203.511        590.8
   86      203.991       590.52
   87      204.471       590.64
   88      204.951       591.58
   89      205.431       592.84
   90       205.91        593.7
   91       206.39       594.38
   92       206.87        594.5
   93      207.349        593.8
   94      207.829       592.92
   95      208.309       592.36
   96      208.788       591.74
   97      209.267       591.08
   98      209.747        590.5
   99      210.226       590.34
  100      210.705       590.04
  101      211.185       589.48
  102      211.664       589.22
  103      212.143       589.62
  104      212.622       590.02
  105      213.101       590.48
  106      213.579       591.08
  107      214.058       591.52
  108      214.537       591.74
  109      215.016       592.12
  110      215.494       592.26
  111      215.973       591.88
  112      216.452       591.64
  113       216.93       591.44
  114      217.408       590.94
  115      217.887        590.6
  116      218.365       591.08
  117      218.843        591.7
  118      219.321       592.28
  119      219.799       593.14
  120      220.278       593.64
  121      220.755       593.48
  122      221.233       593.38
  123      221.711        593.4
  124      222.189       593.02
  125      222.667       592.48
  126      223.144       592.42
  127      223.622       592.66
  128        224.1       592.86
  129      224.577       593.26
  130      225.055        594.3
  131      225.532       595.34
  132      226.009       595.56
  133      226.486       595.58
  134      226.964        595.6
  135      227.441       595.66
  136      227.918       595.64
  137      228.395       596.04
  138      228.872       596.44
  139      229.349       595.94
  140      229.826       594.96
  141      230.302       594.52
  142      230.779       594.46
  143      231.256       594.34
  144      231.732        594.6
  145      232.209       595.44
  146      232.685        595.7
  147      233.162       595.02
  148      233.638       594.56
  149      234.114       594.68
  150       234.59       594.06
  151      235.066       593.56
  152      235.543       594.14
  153      236.019       593.98
  154      236.495       593.02
  155       236.97       592.66
  156      237.446       592.36
  157      237.922       591.86
  158      238.398       591.82
  159      238.873        592.2
  160      239.349       592.98
  161      239.824       593.48
  162        240.3       593.26
  163      240.775       593.28
  164      241.251       594.06
  165      241.726       594.44
  166      242.201       594.42
  167      242.676       594.62
  168      243.151       594.86
  169      243.626       594.36
  170      244.101        593.4
  171      244.576       592.96
  172      245.051          593
  173      245.526        593.4
  174          246       594.46
  175      246.475       595.78
  176       246.95       596.48
  177      247.424       596.68
  178      247.899       596.06
  179      248.373       594.84
  180      248.847        593.6
  181      249.321       592.64
  182      249.796       591.96
  183       250.27        592.2
  184      250.744       593.06
  185      251.218       593.94
  186      251.692       595.22
  187      252.166       596.32
  188      252.639       596.56
  189      253.113        595.7
  190      253.587       595.06
  191       254.06       594.62
  192      254.534        593.7
  193      255.007       592.98
  194      255.481       593.08
  195      255.954       593.46
  196      256.427       593.64
  197      256.901       593.96
  198      257.374       594.24
  199      257.847       594.44
  200       258.32       593.98
  201      258.793          593
  202      259.266       592.14
  203      259.739       591.66
  204      260.211        591.5
  205      260.684       591.76
  206      261.157       592.54
  207      261.629       593.84
  208      262.102       595.18
  209      262.574       595.52
  210      263.046       595.32
  211      263.519       595.14
  212      263.991       594.76
  213      264.463       593.74
  214      264.935       593.36
  215      265.407       594.04
  216      265.879       594.74
  217      266.351       595.06
  218      266.823       595.06
  219      267.295       594.44
  220      267.766       592.96
  221      268.238       591.32
  222       268.71        590.2
  223      269.181       589.64
  224      269.653       589.46
  225      270.124        590.2
  226      270.595       591.52
  227      271.066       592.74
  228      271.538       594.04
  229      272.009       594.96
  230       272.48       594.88
  231      272.951       594.52
  232      273.422       594.48
  233      273.892       594.18
  234      274.363        594.3
  235      274.834       594.98
  236      275.305          595
  237      275.775       594.44
  238      276.246       594.14
  239      276.716       593.82
  240      277.186       593.24
  241      277.657       593.32
  242      278.127       593.76
  243      278.597        593.7
  244      279.067       593.34
  245      279.537       593.24
  246      280.007       593.26
  247      280.477       592.86
  248      280.947       593.02
  249      281.417       593.84
  250      281.886       594.32
  251      282.356       594.66
  252      282.825       595.54
  253      283.295       596.26
  254      283.764        596.6
  255      284.234       597.34
  256      284.703       597.72
  257      285.172       596.82
  258      285.641       595.72
  259       286.11       595.04
  260      286.579       594.16
  261      287.048       593.36
  262      287.517       593.24
  263      287.986       593.34
  264      288.454       593.78
  265      288.923       594.26
  266      289.392       594.76
  267       289.86       595.46
  268      290.329        595.9
  269      290.797       595.52
  270      291.265       594.58
  271      291.734        593.7
  272      292.202       592.96
  273       292.67       592.58
  274      293.138       592.74
  275      293.606       593.28
  276      294.074       593.76
  277      294.541       594.48
  278      295.009        594.9
  279      295.477       594.46
  280      295.944        593.8
  281      296.412       593.64
  282      296.879       593.44
  283      297.347       593.94
  284      297.814        594.4
  285      298.281       594.66
  286      298.749       594.38
  287      299.216       594.04
  288      299.683       593.22
  289       300.15       592.68
  290      300.616       592.68
  291      301.083       592.66
  292       301.55       592.54
  293      302.017       592.78
  294      302.483       593.46
  295       302.95       593.94
  296      303.416       594.72
  297      303.883        595.7
  298      304.349       596.54
  299      304.815       597.08
  300      305.281       597.64
  301      305.748       597.44
  302      306.214       596.54
  303       306.68       596.02
  304      307.146       595.68
  305      307.611       595.16
  306      308.077       595.16
  307      308.543       595.38
  308      309.008       595.68
  309      309.474        596.4
  310      309.939       597.68
  311      310.405       600.42
  312       310.87       604.96
  313      311.335       610.12
  314        311.8        615.3
  315      312.266       620.06
  316      312.731       623.06
  317      313.196       623.28
  318       313.66       620.74
  319      314.125        616.4
  320       314.59        611.5
  321      315.055       606.94
  322      315.519       603.38
  323      315.984       600.48
  324      316.448        598.4
  325      316.913       596.92
  326      317.377       595.32
  327      317.841       593.48
  328      318.305       592.16
  329      318.769          592
  330      319.233       592.32
  331      319.697       592.18
  332      320.161       592.36
  333      320.625        593.5
  334      321.089       594.34
  335      321.552       594.72
  336      322.016        595.5
  337      322.479        596.2
  338      322.943       596.02
  339      323.406        595.5
  340      323.869       595.12
  341      324.333       594.72
  342      324.796       594.22
  343      325.259       593.88
  344      325.722       593.52
  345      326.185       593.28
  346      326.647       593.44
  347       327.11       593.32
  348      327.573       592.96
  349      328.035        592.5
  350      328.498       592.06
  351       328.96        591.5
  352      329.423       591.38
  353      329.885       591.32
  354      330.347       591.22
  355       330.81       591.22
  356      331.272       591.02
  357      331.734       591.32
  358      332.196       592.84
  359      332.657       594.68
  360      333.119       596.16
  361      333.581       597.34
  362      334.043       597.48
  363      334.504        596.8
  364      334.966       595.92
  365      335.427       595.32
  366      335.888        595.2
  367       336.35       595.22
  368      336.811       594.94
  369      337.272          595
  370      337.733       594.74
  371      338.194       594.62
  372      338.655       595.42
  373      339.115       595.96
  374      339.576       595.76
  375      340.037       595.62
  376      340.497       595.38
  377      340.958       595.26
  378      341.418       595.48
  379      341.879       596.08
  380      342.339       597.04
  381      342.799       597.94
  382      343.259       597.94
  383      343.719       597.44
  384      344.179       596.84
  385      344.639          596
  386      345.099       595.14
  387      345.559       594.16
  388      346.018       593.58
  389      346.478       593.56
  390      346.937       593.36
  391      347.397       593.16
  392      347.856       593.42
  393      348.315       594.08
  394      348.774       594.78
  395      349.234       595.54
  396      349.693       596.06
  397      350.152       596.56
  398       350.61       596.68
  399      351.069        596.2
  400      351.528       595.22
  401      351.987       594.14
  402      352.445       593.28
  403      352.904       592.94
  404      353.362          593
  405       353.82       593.78
  406      354.279       595.06
  407      354.737       596.34
  408      355.195       597.28
  409      355.653        598.1
  410      356.111       598.74
  411      356.569        599.2
  412      357.027        599.6
  413      357.484       599.92
  414      357.942        600.2
  415      358.399       600.98
  416      358.857       601.98
  417      359.314       602.42
  418      359.772        602.9
  419      360.229       603.48
  420      360.686       603.94
  421      361.143        604.9
  422        361.6       607.74
  423      362.057       617.92
  424      362.514        648.4
  425      362.971       713.58
  426      363.427       815.12
  427      363.884       939.36
  428       364.34      1060.88
  429      364.797      1148.72
  430      365.253      1176.84
  431      365.709      1140.56
  432      366.166      1058.08
  433      366.622       954.96
  434      367.078       854.52
  435      367.534       772.22
  436       367.99       712.96
  437      368.445       672.64
  438      368.901       646.12
  439      369.357       629.16
  440      369.812        618.3
  441      370.268        611.4
  442      370.723       607.36
  443      371.179        605.2
  444      371.634       603.88
  445      372.089          603
  446      372.544       602.28
  447      372.999       601.36
  448      373.454        600.4
  449      373.909       599.46
  450      374.364        598.3
  451      374.818       597.46
  452      375.273        597.3
  453      375.727       597.18
  454      376.182       597.04
  455      376.636       597.26
  456       377.09       597.56
  457      377.545       597.36
  458      377.999       597.18
  459      378.453        597.3
  460      378.907       597.82
  461      379.361       598.66
  462      379.814       599.96
  463      380.268       601.54
  464      380.722       602.54
  465      381.175       603.18
  466      381.629       603.36
  467      382.082        602.8
  468      382.535        601.8
  469      382.989       601.02
  470      383.442       600.14
  471      383.895       599.84
  472      384.348        600.5
  473      384.801       601.24
  474      385.253        601.9
  475      385.706       602.64
  476      386.159       603.06
  477      386.611       603.42
  478      387.064       603.86
  479      387.516        603.7
  480      387.968       603.18
  481      388.421       602.74
  482      388.873       602.64
  483      389.325       603.48
  484      389.777       605.24
  485      390.229          607
  486      390.681       608.34
  487      391.132       608.74
  488      391.584       608.52
  489      392.035       608.92
  490      392.487       609.22
  491      392.938       608.76
  492       393.39       608.48
  493      393.841       608.28
  494      394.292       606.98
  495      394.743       606.04
  496      395.194       606.36
  497      395.645        607.4
  498      396.096       608.58
  499      396.546        610.2
  500      396.997       612.08
  501      397.448       614.02
  502      397.898       615.34
  503      398.349        616.6
  504      398.799       618.36
  505      399.249       620.18
  506      399.699       622.34
  507      400.149        625.2
  508      400.599       628.32
  509      401.049       632.96
  510      401.499       651.08
  511      401.949       715.14
  512      402.398       870.32
  513      402.848      1142.02
  514      403.297       1501.3
  515      403.747      1871.62
  516      404.196      2165.36
  517      404.645      2302.86
  518      405.094      2242.28
  519      405.543      2024.08
  520      405.992       1740.2
  521      406.441      1462.06
  522       406.89      1230.66
  523      407.339      1065.56
  524      407.787       955.24
  525      408.236        874.2
  526      408.684       808.16
  527      409.132       754.08
  528      409.581       711.52
  529      410.029        679.6
  530      410.477       657.02
  531      410.925       642.12
  532      411.373       632.22
  533      411.821       625.62
  534      412.269        621.8
  535      412.716       620.42
  536      413.164       619.78
  537      413.611        619.3
  538      414.059       618.22
  539      414.506       616.34
  540      414.953        614.3
  541        415.4       612.98
  542      415.847       612.26
  543      416.294          612
  544      416.741       612.56
  545      417.188        613.2
  546      417.635       614.02
  547      418.081       615.36
  548      418.528        616.9
  549      418.974       618.14
  550      419.421       619.34
  551      419.867       620.24
  552      420.313       620.48
  553      420.759       621.08
  554      421.205       621.76
  555      421.651        622.3
  556      422.097       622.54
  557      422.543       622.36
  558      422.989       622.04
  559      423.434       622.02
  560       423.88       622.08
  561      424.325       622.28
  562       424.77        622.9
  563      425.216       623.54
  564      425.661        624.3
  565      426.106       625.44
  566      426.551        627.1
  567      426.996       629.46
  568       427.44        632.4
  569      427.885        635.5
  570       428.33       638.42
  571      428.774       641.34
  572      429.219       643.62
  573      429.663       645.58
  574      430.107        648.2
  575      430.551       651.78
  576      430.996       656.92
  577       431.44       664.62
  578      431.883       676.32
  579      432.327       701.04
  580      432.771       792.92
  581      433.215      1104.84
  582      433.658      1846.76
  583      434.102      3112.52
  584      434.545      4755.82
  585      434.988      6458.86
  586      435.431      7821.24
  587      435.875      8447.44
  588      436.318       8156.2
  589      436.761      7121.84
  590      437.203      5718.46
  591      437.646      4283.56
  592      438.089      3060.52
  593      438.531       2170.5
  594      438.974      1597.22
  595      439.416      1243.36
  596      439.859      1026.26
  597      440.301       892.28
  598      440.743       808.34
  599      441.185        754.9
  600      441.627        720.1
  601      442.069       696.92
  602       442.51        681.1
  603      442.952       669.52
  604      443.394       660.46
  605      443.835       653.22
  606      444.277       646.88
  607      444.718        641.1
  608      445.159       636.68
  609        445.6       633.22
  610      446.041       630.28
  611      446.482       627.84
  612      446.923       625.84
  613      447.364       623.88
  614      447.804        622.4
  615      448.245       621.54
  616      448.685        621.5
  617      449.126       621.74
  618      449.566       621.92
  619      450.006       621.78
  620      450.447       620.94
  621      450.887        619.4
  622      451.326       617.82
  623      451.766       616.94
  624      452.206        616.4
  625      452.646        615.7
  626      453.085       614.64
  627      453.525       613.54
  628      453.964       612.34
  629      454.403       611.38
  630      454.843        611.3
  631      455.282       611.96
  632      455.721        612.9
  633       456.16       613.78
  634      456.599       613.78
  635      457.037       613.24
  636      457.476       612.92
  637      457.915        612.1
  638      458.353       611.34
  639      458.791       611.16
  640       459.23       610.96
  641      459.668        610.4
  642      460.106       609.64
  643      460.544       608.68
  644      460.982       608.32
  645       461.42       608.46
  646      461.857        608.4
  647      462.295       608.58
  648      462.733        608.8
  649       463.17       608.88
  650      463.607        609.2
  651      464.045       609.74
  652      464.482       610.26
  653      464.919       610.48
  654      465.356       610.06
  655      465.793       609.34
  656       466.23       608.54
  657      466.666       607.68
  658      467.103        607.1
  659      467.539       606.46
  660      467.976       605.02
  661      468.412       604.32
  662      468.848        604.5
  663      469.284       605.04
  664       469.72       606.18
  665      470.156       608.02
  666      470.592       608.94
  667      471.028       609.02
  668      471.464       608.74
  669      471.899       607.96
  670      472.335       606.32
  671       472.77       604.68
  672      473.205        603.5
  673      473.641        602.5
  674      474.076        601.7
  675      474.511       601.58
  676      474.946        602.3
  677       475.38        603.2
  678      475.815       603.78
  679       476.25       604.84
  680      476.684        606.1
  681      477.119       606.74
  682      477.553       607.62
  683      477.987        609.5
  684      478.421        611.5
  685      478.856       613.66
  686      479.289       615.38
  687      479.723       616.14
  688      480.157       616.38
  689      480.591       615.76
  690      481.024       614.82
  691      481.458       614.42
  692      481.891       613.86
  693      482.324       612.88
  694      482.758        612.7
  695      483.191       612.56
  696      483.624       612.14
  697      484.057        612.3
  698      484.489       612.08
  699      484.922       611.62
  700      485.355       611.18
  701      485.787       610.94
  702       486.22        610.8
  703      486.652       611.18
  704      487.084       611.22
  705      487.516       611.28
  706      487.948       611.44
  707       488.38       611.66
  708      488.812       612.02
  709      489.244       613.08
  710      489.676        615.4
  711      490.107       619.24
  712      490.539       623.74
  713       490.97       628.12
  714      491.401        631.7
  715      491.832        632.7
  716      492.263       630.88
  717      492.694       627.34
  718      493.125       622.96
  719      493.556        618.1
  720      493.987       614.28
  721      494.417       611.42
  722      494.848       609.04
  723      495.278       607.58
  724      495.708       607.04
  725      496.139       606.62
  726      496.569       606.18
  727      496.999       605.78
  728      497.429        604.9
  729      497.858       603.82
  730      498.288       603.24
  731      498.718       603.12
  732      499.147        603.2
  733      499.577        603.1
  734      500.006        602.7
  735      500.435       602.42
  736      500.864       602.14
  737      501.293       601.52
  738      501.722       601.14
  739      502.151       600.68
  740       502.58       600.08
  741      503.008          599
  742      503.437       597.96
  743      503.865        597.6
  744      504.293       597.78
  745      504.722       597.78
  746       505.15       598.54
  747      505.578       599.44
  748      506.006       600.14
  749      506.434       600.72
  750      506.861       600.86
  751      507.289       600.44
  752      507.716       600.04
  753      508.144        599.5
  754      508.571          599
  755      508.998        598.9
  756      509.425       598.84
  757      509.852       599.38
  758      510.279       600.26
  759      510.706       600.88
  760      511.133       601.08
  761       511.56        601.6
  762      511.986        602.3
  763      512.412       603.06
  764      512.839       603.74
  765      513.265       604.44
  766      513.691       604.76
  767      514.117       604.38
  768      514.543       603.94
  769      514.969       603.98
  770      515.395        604.3
  771       515.82       604.88
  772      516.246       605.16
  773      516.671       604.28
  774      517.096       602.84
  775      517.522       601.58
  776      517.947       600.42
  777      518.372        599.8
  778      518.797       599.84
  779      519.222       600.08
  780      519.646        600.5
  781      520.071        601.2
  782      520.495       601.84
  783       520.92       602.02
  784      521.344       601.68
  785      521.768       600.82
  786      522.192       599.68
  787      522.616       598.76
  788       523.04       598.42
  789      523.464       598.48
  790      523.888        598.7
  791      524.311        599.1
  792      524.735       599.78
  793      525.158       600.24
  794      525.581       600.66
  795      526.005       601.28
  796      526.428       601.48
  797      526.851       601.34
  798      527.274       601.68
  799      527.696       602.04
  800      528.119       602.26
  801      528.542          603
  802      528.964        603.4
  803      529.386       603.56
  804      529.809       604.42
  805      530.231       605.54
  806      530.653       605.94
  807      531.075        606.1
  808      531.497       605.84
  809      531.918        605.4
  810       532.34       604.76
  811      532.761       604.18
  812      533.183       604.02
  813      533.604       604.48
  814      534.025       604.52
  815      534.447       604.96
  816      534.868       606.12
  817      535.289        607.7
  818      535.709       609.08
  819       536.13       610.82
  820      536.551       612.24
  821      536.971       613.18
  822      537.392       613.68
  823      537.812          614
  824      538.232       614.24
  825      538.652          615
  826      539.072       615.72
  827      539.492       616.08
  828      539.912       616.66
  829      540.331       617.46
  830      540.751       618.24
  831       541.17       619.44
  832       541.59       621.96
  833      542.009       625.96
  834      542.428       632.26
  835      542.847       651.14
  836      543.266        727.4
  837      543.685       956.44
  838      544.104      1442.08
  839      544.522      2227.48
  840      544.941       3219.2
  841      545.359      4205.46
  842      545.778      4956.76
  843      546.196      5275.96
  844      546.614      5068.96
  845      547.032       4436.6
  846       547.45      3607.34
  847      547.867      2770.24
  848      548.285       2053.4
  849      548.703      1526.94
  850       549.12      1185.24
  851      549.538       974.84
  852      549.955        845.5
  853      550.372        764.6
  854      550.789        713.5
  855      551.206       681.22
  856      551.623        660.9
  857      552.039       647.72
  858      552.456       638.74
  859      552.873       632.56
  860      553.289       628.06
  861      553.705       624.58
  862      554.121       622.08
  863      554.537       620.48
  864      554.953       619.44
  865      555.369       618.36
  866      555.785       616.88
  867      556.201          615
  868      556.616       612.82
  869      557.032       610.64
  870      557.447       609.02
  871      557.862       608.32
  872      558.277       607.76
  873      558.692        607.3
  874      559.107       607.66
  875      559.522       608.58
  876      559.937       608.88
  877      560.351       609.08
  878      560.766       609.66
  879       561.18       609.54
  880      561.595       608.74
  881      562.009       608.28
  882      562.423        608.1
  883      562.837        607.3
  884       563.25       606.54
  885      563.664       606.04
  886      564.078        605.4
  887      564.491       604.28
  888      564.905       603.52
  889      565.318       603.08
  890      565.731        602.4
  891      566.144       601.82
  892      566.557       601.94
  893       566.97       602.06
  894      567.383        601.6
  895      567.795       601.56
  896      568.208       602.04
  897       568.62       602.42
  898      569.033       602.78
  899      569.445       603.64
  900      569.857        604.5
  901      570.269       604.78
  902      570.681       604.66
  903      571.093        604.8
  904      571.504       604.96
  905      571.916       605.28
  906      572.327          606
  907      572.739       606.96
  908       573.15       607.98
  909      573.561       610.12
  910      573.972       617.56
  911      574.383       642.58
  912      574.794       699.62
  913      575.204       795.88
  914      575.615       925.82
  915      576.025         1071
  916      576.436      1210.06
  917      576.846      1326.96
  918      577.256       1413.3
  919      577.666      1467.94
  920      578.076      1494.86
  921      578.486       1493.3
  922      578.896      1456.42
  923      579.305      1378.58
  924      579.715      1264.54
  925      580.124      1131.12
  926      580.533        997.4
  927      580.942        878.5
  928      581.351       785.08
  929       581.76        720.4
  930      582.169       678.66
  931      582.578       652.16
  932      582.986        635.2
  933      583.395       624.14
  934      583.803       616.64
  935      584.212       611.62
  936       584.62       607.86
  937      585.028       605.78
  938      585.436       604.92
  939      585.843       604.42
  940      586.251       604.32
  941      586.659       604.34
  942      587.066       603.66
  943      587.474       602.52
  944      587.881       601.32
  945      588.288       600.12
  946      588.695       599.72
  947      589.102       599.74
  948      589.509       599.36
  949      589.915       599.24
  950      590.322       599.48
  951      590.728       599.04
  952      591.135        597.9
  953      591.541       597.28
  954      591.947       596.72
  955      592.353       596.02
  956      592.759       595.74
  957      593.165        596.1
  958      593.571       596.54
  959      593.976       596.62
  960      594.382        596.3
  961      594.787       595.86
  962      595.192       595.34
  963      595.597       594.72
  964      596.002        594.7
  965      596.407       594.62
  966      596.812       594.36
  967      597.217       594.34
  968      597.621        594.2
  969      598.026       593.82
  970       598.43       594.06
  971      598.834        594.5
  972      599.238       594.32
  973      599.642       594.24
  974      600.046       594.52
  975       600.45       595.12
  976      600.854       595.64
  977      601.257       595.96
  978      601.661        595.9
  979      602.064       595.86
  980      602.467       595.88
  981       602.87       595.78
  982      603.273       595.58
  983      603.676       595.54
  984      604.079          595
  985      604.481        594.3
  986      604.884       594.08
  987      605.286       594.14
  988      605.689       594.32
  989      606.091       594.72
  990      606.493       594.88
  991      606.895       595.06
  992      607.297        595.4
  993      607.698        595.4
  994        608.1        595.3
  995      608.501        595.3
  996      608.903       595.04
  997      609.304       594.54
  998      609.705       594.42
  999      610.106       594.52
 1000      610.507        594.6
 1001      610.908       594.78
 1002      611.308       595.12
 1003      611.709        595.6
 1004      612.109       595.94
 1005       612.51        596.1
 1006       612.91       596.22
 1007       613.31        596.3
 1008       613.71       596.02
 1009       614.11       595.98
 1010       614.51       596.48
 1011      614.909       597.34
 1012      615.309       598.36
 1013      615.708       599.04
 1014      616.108        598.7
 1015      616.507          598
 1016      616.906       597.02
 1017      617.305       596.02
 1018      617.704       595.32
 1019      618.102       595.06
 1020      618.501       594.48
 1021      618.899       594.04
 1022      619.298       593.74
 1023      619.696       593.74
 1024      620.094       594.16
 1025      620.492        594.6
 1026       620.89        594.7
 1027      621.288       594.84
 1028      621.686       594.86
 1029      622.083        594.7
 1030       622.48       594.68
 1031      622.878       594.84
 1032      623.275       595.04
 1033      623.672       595.32
 1034      624.069       595.68
 1035      624.466       595.88
 1036      624.863       595.98
 1037      625.259        596.3
 1038      625.656        596.4
 1039      626.052       596.08
 1040      626.448       596.02
 1041      626.844       595.66
 1042      627.241       595.24
 1043      627.636       595.34
 1044      628.032       595.44
 1045      628.428       595.08
 1046      628.823          595
 1047      629.219        594.5
 1048      629.614        593.2
 1049      630.009       592.12
 1050      630.404       592.12
 1051      630.799       592.48
 1052      631.194       592.78
 1053      631.589        593.6
 1054      631.984        594.6
 1055      632.378       594.96
 1056      632.772       594.88
 1057      633.167       594.48
 1058      633.561       593.92
 1059      633.955        593.4
 1060      634.349       592.56
 1061      634.743       591.86
 1062      635.136       592.12
 1063       635.53       592.82
 1064      635.923       593.42
 1065      636.316       594.48
 1066       636.71       595.68
 1067      637.103        596.3
 1068      637.496       596.26
 1069      637.888       596.22
 1070      638.281       595.76
 1071      638.674       595.12
 1072      639.066       594.88
 1073      639.459       595.18
 1074      639.851        595.3
 1075      640.243       595.12
 1076      640.635       594.84
 1077      641.027       594.14
 1078      641.419       593.26
 1079       641.81        592.6
 1080      642.202          592
 1081      642.593       591.52
 1082      642.984       591.72
 1083      643.375       592.32
 1084      643.766        593.2
 1085      644.157       594.38
 1086      644.548       595.16
 1087      644.939       595.24
 1088      645.329        595.1
 1089       645.72       595.06
 1090       646.11       595.24
 1091        646.5       595.22
 1092       646.89       595.14
 1093       647.28       594.76
 1094       647.67       594.02
 1095       648.06        593.3
 1096      648.449       593.12
 1097      648.839       593.42
 1098      649.228          594
 1099      649.617        594.2
 1100      650.007        594.6
 1101      650.396        595.2
 1102      650.784       595.04
 1103      651.173        594.4
 1104      651.562       594.08
 1105       651.95        593.3
 1106      652.339       592.22
 1107      652.727       591.92
 1108      653.115       592.52
 1109      653.503       593.06
 1110      653.891       593.94
 1111      654.279       595.22
 1112      654.666       596.22
 1113      655.054       596.94
 1114      655.441       597.42
 1115      655.828       597.26
 1116      656.216        596.7
 1117      656.603       595.98
 1118      656.989       594.76
 1119      657.376       593.84
 1120      657.763       593.74
 1121      658.149       593.64
 1122      658.536       593.92
 1123      658.922       594.58
 1124      659.308       595.08
 1125      659.694       595.64
 1126       660.08       596.16
 1127      660.466        596.2
 1128      660.852       596.56
 1129      661.237       596.88
 1130      661.623       596.64
 1131      662.008       596.78
 1132      662.393       597.26
 1133      662.778       597.12
 1134      663.163       597.28
 1135      663.548       597.34
 1136      663.933       596.96
 1137      664.317       596.62
 1138      664.702        596.3
 1139      665.086       595.54
 1140       665.47          595
 1141      665.854       594.76
 1142      666.238       594.26
 1143      666.622       593.12
 1144      667.006       592.36
 1145      667.389       591.86
 1146      667.773        591.3
 1147      668.156       591.06
 1148      668.539       591.98
 1149      668.923       593.32
 1150      669.305        594.5
 1151      669.688       595.16
 1152      670.071       595.64
 1153      670.454       595.88
 1154      670.836       595.26
 1155      671.218       594.56
 1156      671.601       594.74
 1157      671.983        594.8
 1158      672.365       594.18
 1159      672.747       594.08
 1160      673.128       593.98
 1161       673.51       594.12
 1162      673.891       594.84
 1163      674.273       596.02
 1164      674.654          597
 1165      675.035       597.86
 1166      675.416          598
 1167      675.797       597.26
 1168      676.177       596.46
 1169      676.558       596.04
 1170      676.938       595.98
 1171      677.319       595.66
 1172      677.699       595.26
 1173      678.079       595.02
 1174      678.459        594.5
 1175      678.839        593.6
 1176      679.219       593.12
 1177      679.598       593.12
 1178      679.978       592.88
 1179      680.357        592.6
 1180      680.736       592.58
 1181      681.115       592.72
 1182      681.494       593.16
 1183      681.873       593.72
 1184      682.252       594.26
 1185       682.63          595
 1186      683.009       595.72
 1187      683.387       595.72
 1188      683.765       595.62
 1189      684.143       595.72
 1190      684.521        595.6
 1191      684.899       595.22
 1192      685.277       595.12
 1193      685.654       595.14
 1194      686.032       595.14
 1195      686.409       595.28
 1196      686.786       595.42
 1197      687.163       595.76
 1198       687.54        596.4
 1199      687.917          597
 1200      688.294       597.36
 1201       688.67       597.84
 1202      689.046       598.22
 1203      689.423       598.72
 1204      689.799       599.36
 1205      690.175       600.24
 1206      690.551       600.94
 1207      690.927       601.24
 1208      691.302       600.58
 1209      691.678       599.56
 1210      692.053       598.02
 1211      692.428       596.32
 1212      692.804        595.5
 1213      693.179       596.24
 1214      693.553       598.34
 1215      693.928          602
 1216      694.303       607.32
 1217      694.677        613.1
 1218      695.052       618.46
 1219      695.426       622.46
 1220        695.8       624.66
 1221      696.174        624.9
 1222      696.548        623.7
 1223      696.921       621.12
 1224      697.295       617.52
 1225      697.669       613.24
 1226      698.042       609.34
 1227      698.415        605.6
 1228      698.788       602.66
 1229      699.161       601.14
 1230      699.534       600.72
 1231      699.907       600.24
 1232      700.279       599.52
 1233      700.652        597.9
 1234      701.024       595.72
 1235      701.396       594.08
 1236      701.768       592.58
 1237       702.14        592.3
 1238      702.512        593.3
 1239      702.883       594.18
 1240      703.255       594.74
 1241      703.626       595.64
 1242      703.998       596.78
 1243      704.369       598.92
 1244       704.74        602.1
 1245      705.111       605.12
 1246      705.481       607.62
 1247      705.852       609.34
 1248      706.222       609.56
 1249      706.593       609.04
 1250      706.963       608.06
 1251      707.333       606.48
 1252      707.703       604.18
 1253      708.073       601.82
 1254      708.442       599.38
 1255      708.812       597.18
 1256      709.181       595.62
 1257      709.551       594.46
 1258       709.92        593.1
 1259      710.289       591.94
 1260      710.658       591.52
 1261      711.027       591.52
 1262      711.395       591.64
 1263      711.764       592.18
 1264      712.132       592.68
 1265        712.5        592.9
 1266      712.869       593.72
 1267      713.236       594.74
 1268      713.604       595.22
 1269      713.972       595.18
 1270       714.34          595
 1271      714.707       594.22
 1272      715.074       593.22
 1273      715.442       592.78
 1274      715.809       593.44
 1275      716.176       593.92
 1276      716.542       594.26
 1277      716.909       594.96
 1278      717.276       595.12
 1279      717.642       594.46
 1280      718.008          594
 1281      718.374       593.66
 1282       718.74       593.26
 1283      719.106       593.68
 1284      719.472       594.44
 1285      719.838       594.94
 1286      720.203        594.9
 1287      720.568       594.26
 1288      720.934       593.52
 1289      721.299        592.9
 1290      721.664       592.46
 1291      722.029       592.12
 1292      722.393       591.74
 1293      722.758       591.38
 1294      723.122       591.22
 1295      723.486       591.18
 1296      723.851        591.9
 1297      724.215        593.8
 1298      724.578       595.46
 1299      724.942       596.48
 1300      725.306       597.52
 1301      725.669       598.82
 1302      726.033       599.98
 1303      726.396        600.8
 1304      726.759       601.04
 1305      727.122       600.98
 1306      727.485       600.08
 1307      727.847       598.06
 1308       728.21        595.8
 1309      728.572       594.44
 1310      728.935       593.46
 1311      729.297       592.46
 1312      729.659       591.74
 1313      730.021       591.48
 1314      730.382       591.42
 1315      730.744       591.04
 1316      731.105       590.52
 1317      731.467          590
 1318      731.828       589.66
 1319      732.189       589.56
 1320       732.55        589.8
 1321      732.911       590.46
 1322      733.271       591.26
 1323      733.632       592.04
 1324      733.992        592.2
 1325      734.352        592.1
 1326      734.713       592.06
 1327      735.072       592.82
 1328      735.432       594.62
 1329      735.792       597.76
 1330      736.152       601.56
 1331      736.511       605.64
 1332       736.87       609.18
 1333      737.229       611.04
 1334      737.589       611.68
 1335      737.947       611.28
 1336      738.306       609.18
 1337      738.665       606.32
 1338      739.023       603.58
 1339      739.382        600.3
 1340       739.74       596.68
 1341      740.098        593.9
 1342      740.456       592.04
 1343      740.814       591.34
 1344      741.171       591.34
 1345      741.529       591.62
 1346      741.886       591.94
 1347      742.244       592.02
 1348      742.601        591.2
 1349      742.958       590.42
 1350      743.314       590.34
 1351      743.671       590.62
 1352      744.028       590.98
 1353      744.384       591.76
 1354       744.74        592.7
 1355      745.097       593.34
 1356      745.453       594.06
 1357      745.809       594.34
 1358      746.164       593.68
 1359       746.52       592.78
 1360      746.875       592.68
 1361      747.231       593.76
 1362      747.586       597.02
 1363      747.941       602.78
 1364      748.296       610.08
 1365      748.651       618.18
 1366      749.005       625.78
 1367       749.36        631.4
 1368      749.714        634.6
 1369      750.069       635.02
 1370      750.423        632.9
 1371      750.777       629.24
 1372       751.13       623.96
 1373      751.484       617.94
 1374      751.838       612.18
 1375      752.191       606.58
 1376      752.544       600.92
 1377      752.897          597
 1378       753.25        594.4
 1379      753.603       592.54
 1380      753.956        591.6
 1381      754.309       591.76
 1382      754.661        592.1
 1383      755.013       592.82
 1384      755.365       594.38
 1385      755.717       596.08
 1386      756.069       596.98
 1387      756.421       597.38
 1388      756.773       597.68
 1389      757.124       596.68
 1390      757.476       595.16
 1391      757.827       594.74
 1392      758.178       594.86
 1393      758.529        594.5
 1394      758.879       595.22
 1395       759.23       596.82
 1396      759.581       598.98
 1397      759.931        603.8
 1398      760.281       614.52
 1399      760.631       630.26
 1400      760.981       649.78
 1401      761.331       671.44
 1402      761.681        690.7
 1403       762.03        702.4
 1404      762.379       705.16
 1405      762.729       699.22
 1406      763.078          686
 1407      763.427        668.9
 1408      763.776       651.28
 1409      764.124        635.6
 1410      764.473       623.32
 1411      764.821       613.96
 1412      765.169       607.18
 1413      765.517       602.46
 1414      765.865        598.7
 1415      766.213          596
 1416      766.561       594.34
 1417      766.909       593.18
 1418      767.256       592.14
 1419      767.603       591.92
 1420       767.95       591.78
 1421      768.297       592.26
 1422      768.644       594.48
 1423      768.991       598.06
 1424      769.337       602.42
 1425      769.684       607.76
 1426       770.03       612.96
 1427      770.376       617.18
 1428      770.722       619.86
 1429      771.068       620.56
 1430      771.414       618.88
 1431      771.759       615.62
 1432      772.105       611.36
 1433       772.45       607.02
 1434      772.795       603.22
 1435       773.14       599.84
 1436      773.485       596.78
 1437       773.83       594.32
 1438      774.174       592.74
 1439      774.519       591.28
 1440      774.863        590.2
 1441      775.207          590
 1442      775.551       589.88
 1443      775.895        589.6
 1444      776.239       589.54
 1445      776.582       590.18
 1446      776.926       591.22
 1447      777.269       592.04
 1448      777.612       592.24
 1449      777.955       592.78
 1450      778.298       593.36
 1451      778.641       593.62
 1452      778.983       593.82
 1453      779.326        593.9
 1454      779.668       593.44
 1455       780.01       592.76
 1456      780.352        591.7
 1457      780.694        590.9
 1458      781.036       590.94
 1459      781.377       591.24
 1460      781.719       591.74
 1461       782.06       592.76
 1462      782.401       593.66
 1463      782.742       594.46
 1464      783.083       594.94
 1465      783.424       594.48
 1466      783.764       593.92
 1467      784.105       593.84
 1468      784.445       593.12
 1469      784.785        592.6
 1470      785.125          593
 1471      785.465       593.08
 1472      785.805       592.68
 1473      786.144       592.34
 1474      786.484       591.98
 1475      786.823       591.76
 1476      787.162       591.76
 1477      787.501       591.48
 1478       787.84       591.42
 1479      788.178       591.38
 1480      788.517       591.14
 1481      788.855       591.04
 1482      789.194       591.44
 1483      789.532       591.58
 1484       789.87       591.76
 1485      790.208       591.68
 1486      790.545        591.4
 1487      790.883       591.26
 1488       791.22       592.12
 1489      791.557       593.96
 1490      791.894       596.82
 1491      792.231       599.88
 1492      792.568       602.68
 1493      792.905       604.94
 1494      793.241        605.9
 1495      793.578       605.92
 1496      793.914       605.12
 1497       794.25       603.22
 1498      794.586       600.78
 1499      794.922       598.88
 1500      795.257       597.12
 1501      795.593       595.84
 1502      795.928       595.14
 1503      796.263       594.54
 1504      796.598       593.78
 1505      796.933        593.3
 1506      797.268        593.7
 1507      797.603       595.52
 1508      797.937       598.86
 1509      798.271       603.14
 1510      798.606       607.74
 1511       798.94       612.14
 1512      799.274       615.26
 1513      799.607        616.6
 1514      799.941        615.9
 1515      800.274        613.6
 1516      800.608       610.38
 1517      800.941       607.42
 1518      801.274       604.58
 1519      801.607       601.96
 1520      801.939       599.84
 1521      802.272       597.94
 1522      802.604       596.22
 1523      802.936        594.6
 1524      803.269       594.18
 1525      803.601       594.44
 1526      803.932        594.7
 1527      804.264       594.64
 1528      804.596       595.06
 1529      804.927       595.02
 1530      805.258       594.38
 1531      805.589       593.92
 1532       805.92       593.72
 1533      806.251       594.14
 1534      806.582       595.34
 1535      806.912       597.44
 1536      807.242       600.58
 1537      807.573       605.62
 1538      807.903       612.26
 1539      808.232          621
 1540      808.562       631.84
 1541      808.892       642.92
 1542      809.221       652.06
 1543      809.551       657.88
 1544       809.88       659.46
 1545      810.209       656.18
 1546      810.538       649.02
 1547      810.866        639.6
 1548      811.195        629.4
 1549      811.523       619.44
 1550      811.851       610.56
 1551       812.18       603.86
 1552      812.507       598.94
 1553      812.835       595.34
 1554      813.163       592.44
 1555       813.49       590.38
 1556      813.818        588.9
 1557      814.145       588.46
 1558      814.472        588.6
 1559      814.799       589.84
 1560      815.126       591.62
 1561      815.452       593.04
 1562      815.779       593.74
 1563      816.105        594.4
 1564      816.431       594.32
 1565      816.757        593.8
 1566      817.083       593.72
 1567      817.409       593.84
 1568      817.734        593.6
 1569       818.06       593.32
 1570      818.385       593.02
 1571       818.71       592.22
 1572      819.035       591.66
 1573       819.36        591.8
 1574      819.685       591.62
 1575      820.009       591.38
 1576      820.333       591.74
 1577      820.658       591.92
 1578      820.982       591.82
 1579      821.305        592.8
 1580      821.629        593.6
 1581      821.953       593.82
 1582      822.276       593.74
 1583        822.6        593.8
 1584      822.923        593.8
 1585      823.246       594.64
 1586      823.569        596.2
 1587      823.891       598.42
 1588      824.214       600.44
 1589      824.536        601.5
 1590      824.858        601.5
 1591       825.18       600.34
 1592      825.502       598.56
 1593      825.824       596.78
 1594      826.146        595.5
 1595      826.467       594.72
 1596      826.789       594.36
 1597       827.11       594.04
 1598      827.431       593.74
 1599      827.752       593.48
 1600      828.072       593.26
 1601      828.393       592.96
 1602      828.713        592.8
 1603      829.034       592.66
 1604      829.354       592.42
 1605      829.674       591.92
 1606      829.993       591.34
 1607      830.313       590.94
 1608      830.633       590.52
 1609      830.952        590.2
 1610      831.271       590.64
 1611       831.59       591.36
 1612      831.909       591.82
 1613      832.228       592.58
 1614      832.546        593.8
 1615      832.865       594.68
 1616      833.183       595.22
 1617      833.501       595.38
 1618      833.819       595.08
 1619      834.137       594.48
 1620      834.455       593.82
 1621      834.772        593.3
 1622      835.089        592.9
 1623      835.407       592.46
 1624      835.724       591.98
 1625       836.04       591.78
 1626      836.357       591.72
 1627      836.674       591.88
 1628       836.99        592.5
 1629      837.306       592.76
 1630      837.623       592.98
 1631      837.939       593.44
 1632      838.254        593.8
 1633       838.57       593.96
 1634      838.886        594.4
 1635      839.201        594.8
 1636      839.516       595.36
 1637      839.831          596
 1638      840.146       595.92
 1639      840.461       595.34
 1640      840.775       594.34
 1641       841.09       593.36
 1642      841.404       592.68
 1643      841.718        592.5
 1644      842.032       592.64
 1645      842.346       592.78
 1646      842.659       592.86
 1647      842.973       593.38
 1648      843.286       594.28
 1649      843.599       594.84
 1650      843.912       594.88
 1651      844.225       594.36
 1652      844.538        593.2
 1653      844.851       591.64
 1654      845.163       590.88
 1655      845.475       591.24
 1656      845.787       591.96
 1657      846.099       592.48
 1658      846.411       592.92
 1659      846.723       592.72
 1660      847.034       591.92
 1661      847.345       590.86
 1662      847.657       589.64
 1663      847.968       588.86
 1664      848.278       588.52
 1665      848.589       588.12
 1666        848.9       587.72
 1667       849.21       587.62
 1668       849.52       587.72
 1669       849.83        588.1
 1670       850.14        589.3
 1671       850.45       590.76
 1672      850.759       591.92
 1673      851.069        592.9
 1674      851.378       593.48
 1675      851.687       593.72
 1676      851.996          594
 1677      852.305       594.18
 1678      852.614        593.5
 1679      852.922       592.66
 1680       853.23       591.96
 1681      853.539       591.14
 1682      853.847       590.88
 1683      854.154       591.58
 1684      854.462       592.36
 1685       854.77        592.5
 1686      855.077        592.5
 1687      855.384       592.54
 1688      855.691       592.64
 1689      855.998       592.54
 1690      856.305       592.46
 1691      856.612       592.68
 1692      856.918       592.56
 1693      857.224       591.92
 1694       857.53       591.56
 1695      857.836       591.74
 1696      858.142       591.92
 1697      858.448       592.22
 1698      858.753       592.64
 1699      859.059       592.98
 1700      859.364        592.8
 1701      859.669       592.12
 1702      859.974        591.5
 1703      860.278       591.22
 1704      860.583       591.16
 1705      860.887       591.26
 1706      861.192        591.7
 1707      861.496        592.6
 1708        861.8       593.48
 1709      862.103       593.66
 1710      862.407       593.84
 1711       862.71        594.3
 1712      863.014       594.38
 1713      863.317       594.32
 1714       863.62       594.38
 1715      863.922       594.28
 1716      864.225        593.7
 1717      864.527       593.18
 1718       864.83        592.4
 1719      865.132        591.7
 1720      865.434       591.04
 1721      865.736       590.88
 1722      866.037       590.88
 1723      866.339       591.54
 1724       866.64       592.62
 1725      866.941       593.52
 1726      867.242          594
 1727      867.543       594.28
 1728      867.844       593.58
 1729      868.145       592.32
 1730      868.445       591.58
 1731      868.745        591.2
 1732      869.045        590.5
 1733      869.345       589.94
 1734      869.645       589.46
 1735      869.944       589.16
 1736      870.244       589.06
 1737      870.543       588.82
 1738      870.842       588.94
 1739      871.141        589.6
 1740       871.44       589.52
 1741      871.739       588.72
 1742      872.037       588.84
 1743      872.335        589.4
 1744      872.634        590.2
 1745      872.931        591.6
 1746      873.229       593.24
 1747      873.527       594.02
 1748      873.824       594.06
 1749      874.122       593.88
 1750      874.419       593.36
 1751      874.716        592.8
 1752      875.013       592.36
 1753      875.309       591.78
 1754      875.606       590.94
 1755      875.902       590.58
 1756      876.199        590.4
 1757      876.495       590.36
 1758       876.79        590.8
 1759      877.086       591.28
 1760      877.382       591.12
 1761      877.677       590.94
 1762      877.972        590.2
 1763      878.267       588.72
 1764      878.562        587.9
 1765      878.857       588.12
 1766      879.152       588.64
 1767      879.446       589.62
 1768       879.74       591.02
 1769      880.034       592.16
 1770      880.328       592.64
 1771      880.622        592.5
 1772      880.916       592.16
 1773      881.209       592.06
 1774      881.502       591.52
 1775      881.795       590.82
 1776      882.088       590.38
 1777      882.381       590.26
 1778      882.674       590.42
 1779      882.966          591
 1780      883.258       591.58
 1781      883.551       592.16
 1782      883.843        592.7
 1783      884.134       592.46
 1784      884.426       591.78
 1785      884.717       591.14
 1786      885.009        590.3
 1787        885.3       589.62
 1788      885.591        589.6
 1789      885.882       589.28
 1790      886.172        589.1
 1791      886.463       589.52
 1792      886.753       590.02
 1793      887.043       590.56
 1794      887.333       591.68
 1795      887.623       592.78
 1796      887.913       593.18
 1797      888.202       592.92
 1798      888.492       592.18
 1799      888.781       591.52
 1800       889.07        591.1
 1801      889.359       590.84
 1802      889.647       591.14
 1803      889.936       592.26
 1804      890.224       593.22
 1805      890.512       594.14
 1806        890.8       595.04
 1807      891.088       595.48
 1808      891.376       594.96
 1809      891.663       594.26
 1810      891.951       593.68
 1811      892.238       593.46
 1812      892.525       593.48
 1813      892.812        593.8
 1814      893.099       593.82
 1815      893.385        592.7
 1816      893.671       591.26
 1817      893.958       590.06
 1818      894.244       588.86
 1819       894.53       588.22
 1820      894.815       588.58
 1821      895.101        589.2
 1822      895.386        589.4
 1823      895.671        589.5
 1824      895.956       589.72
 1825      896.241        590.5
 1826      896.526       592.04
 1827       896.81        593.7
 1828      897.095       594.84
 1829      897.379       595.14
 1830      897.663       594.34
 1831      897.947       592.28
 1832      898.231       590.14
 1833      898.514       589.04
 1834      898.798       588.62
 1835      899.081       588.36
 1836      899.364       588.52
 1837      899.647       589.42
 1838      899.929       590.42
 1839      900.212       591.08
 1840      900.494        591.5
 1841      900.776       591.82
 1842      901.058       591.64
 1843       901.34       590.48
 1844      901.622        589.4
 1845      901.904       588.94
 1846      902.185       588.62
 1847      902.466       588.32
 1848      902.747       588.86
 1849      903.028       589.88
 1850      903.309        590.7
 1851      903.589        591.1
 1852       903.87       591.16
 1853       904.15       590.64
 1854       904.43       589.84
 1855       904.71       589.08
 1856      904.989        588.9
 1857      905.269       589.62
 1858      905.548       590.74
 1859      905.827       591.84
 1860      906.106        593.3
 1861      906.385       594.68
 1862      906.664        594.9
 1863      906.942       594.52
 1864      907.221       593.84
 1865      907.499       592.54
 1866      907.777        591.2
 1867      908.055        590.8
 1868      908.332       591.18
 1869       908.61       591.62
 1870      908.887       592.12
 1871      909.164       592.74
 1872      909.441       592.96
 1873      909.718       592.52
 1874      909.995       591.94
 1875      910.271       591.58
 1876      910.548       591.28
 1877      910.824       591.02
 1878        911.1          591
 1879      911.375       591.28
 1880      911.651       591.82
 1881      911.927       592.32
 1882      912.202       592.74
 1883      912.477       593.38
 1884      912.752        594.1
 1885      913.027       594.18
 1886      913.301       593.28
 1887      913.576       592.84
 1888       913.85       592.06
 1889      914.124       590.98
 1890      914.398       590.06
 1891      914.672       589.62
 1892      914.945       589.32
 1893      915.219        589.4
 1894      915.492       589.28
 1895      915.765       588.92
 1896      916.038       588.86
 1897      916.311       588.32
 1898      916.583       587.98
 1899      916.856       588.34
 1900      917.128       588.92
 1901        917.4        589.7
 1902      917.672       590.58
 1903      917.944       590.48
 1904      918.215        589.6
 1905      918.486       589.06
 1906      918.758       588.88
 1907      919.029       588.78
 1908      919.299        589.2
 1909       919.57       589.86
 1910      919.841          590
 1911      920.111       589.22
 1912      920.381       588.04
 1913      920.651       586.94
 1914      920.921       585.74
 1915      921.191          585
 1916       921.46       585.08
 1917      921.729       585.04
 1918      921.999       585.06
 1919      922.268       585.98
 1920      922.536       587.34
 1921      922.805        588.4
 1922      923.073       589.86
 1923      923.342       591.32
 1924       923.61       592.18
 1925      923.878       592.52
 1926      924.145       592.32
 1927      924.413       592.08
 1928       924.68       591.52
 1929      924.948       590.66
 1930      925.215        590.1
 1931      925.482       590.26
 1932      925.748       590.72
 1933      926.015       591.44
 1934      926.281       592.18
 1935      926.547       592.48
 1936      926.813       592.06
 1937      927.079       591.44
 1938      927.345       590.92
 1939       927.61       590.22
 1940      927.876       589.34
 1941      928.141       589.14
 1942      928.406       589.12
 1943      928.671       588.76
 1944      928.935       588.22
 1945        929.2       587.96
 1946      929.464        587.3
 1947      929.728       586.16
 1948      929.992       585.62
 1949      930.256       585.86
 1950       930.52       586.06
 1951      930.783       586.46
 1952      931.046       587.14
 1953      931.309       587.88
 1954      931.572       588.78
 1955      931.835       589.64
 1956      932.097        590.7
 1957       932.36       591.38
 1958      932.622        591.5
 1959      932.884       591.72
 1960      933.146       591.72
 1961      933.408       591.24
 1962      933.669       591.28
 1963       933.93        591.4
 1964      934.192       591.14
 1965      934.453       591.84
 1966      934.713       592.56
 1967      934.974       592.48
 1968      935.234       592.44
 1969      935.495       592.46
 1970      935.755       591.62
 1971      936.015       590.88
 1972      936.274       590.78
 1973      936.534       590.56
 1974      936.793       590.28
 1975      937.053        590.4
 1976      937.312       590.76
 1977      937.571       591.08
 1978      937.829        591.6
 1979      938.088       592.62
 1980      938.346       593.78
 1981      938.604       594.66
 1982      938.862       595.24
 1983       939.12       595.46
 1984      939.378       595.08
 1985      939.635       594.34
 1986      939.893       593.48
 1987       940.15       592.38
 1988      940.407       591.34
 1989      940.663       590.76
 1990       940.92       590.28
 1991      941.176       590.18
 1992      941.433       590.74
 1993      941.689       591.26
 1994      941.944       591.12
 1995        942.2       590.62
 1996      942.456        589.7
 1997      942.711       588.86
 1998      942.966       588.26
 1999      943.221       587.38
 2000      943.476       586.68
 2001      943.731       586.64
 2002      943.985       586.76
 2003      944.239       587.52
 2004      944.493       589.26
 2005      944.747       591.24
 2006      945.001       592.44
 2007      945.255       593.34
 2008      945.508        593.8
 2009      945.761        593.4
 2010      946.014        592.4
 2011      946.267        591.4
 2012       946.52       590.38
 2013      946.772        589.4
 2014      947.025       588.64
 2015      947.277        588.4
 2016      947.529       588.38
 2017      947.781       588.56
 2018      948.032       588.68
 2019      948.284        589.4
 2020      948.535       590.48
 2021      948.786        591.6
 2022      949.037       591.84
 2023      949.288       591.92
 2024      949.538       591.82
 2025      949.789       591.12
 2026      950.039       590.14
 2027      950.289          590
 2028      950.539       590.26
 2029      950.788       590.08
 2030      951.038       589.58
 2031      951.287        589.7
 2032      951.536       589.92
 2033      951.785       589.46
 2034      952.034       588.84
 2035      952.282       588.94
 2036      952.531        589.3
 2037      952.779       589.62
 2038      953.027        590.3
 2039      953.275       591.42
 2040      953.523        592.2
 2041       953.77        592.4
 2042      954.017       592.46
 2043      954.264       592.24
 2044      954.511        591.7
 2045      954.758       591.62
 2046      955.005        591.5
 2047      955.251        591.1
