scansci Spectrometer Data File
--- Measurement Setting ---
Type: Sample Spectrum
Date: Mon Oct 16 17:49:48 2023
User: (Reserved by scansci)
Serial: (Reserved by scansci)
Channel: No. 11
Integration Time: 1
Average: 10
Boxcar: 2
Electrical Dark: No-corrected
Time Normalize: (Reserved by scansci)
Dual-beam: (Reserved by scansci)
Reference Ch: (Reserved by scansci)
--- Measurement Data ---
Pixel   Wavelength   Intensity
    0        344.4      668.367
    1      344.867      667.925
    2      345.334       667.54
    3      345.801        667.3
    4      346.268       667.28
    5      346.735       667.88
    6      347.202       668.96
    7      347.669       670.06
    8      348.135        670.9
    9      348.602       671.44
   10      349.068        671.2
   11      349.535       670.26
   12      350.001        669.5
   13      350.467       669.18
   14      350.933       668.96
   15      351.399       669.46
   16      351.866       670.14
   17      352.331       670.36
   18      352.797       670.24
   19      353.263       669.58
   20      353.729       668.66
   21      354.194       668.28
   22       354.66       668.36
   23      355.126       668.56
   24      355.591       668.72
   25      356.056        668.6
   26      356.522       668.22
   27      356.987       667.74
   28      357.452       667.08
   29      357.917       666.62
   30      358.382       666.72
   31      358.847          667
   32      359.312       667.76
   33      359.776        668.9
   34      360.241       670.04
   35      360.706       670.84
   36       361.17       671.42
   37      361.634       671.66
   38      362.099       671.74
   39      362.563       671.74
   40      363.027       671.64
   41      363.491       671.58
   42      363.955       671.34
   43      364.419       670.78
   44      364.883        670.2
   45      365.347          670
   46      365.811       669.94
   47      366.274       670.32
   48      366.738       671.08
   49      367.201       671.72
   50      367.665       671.86
   51      368.128        671.7
   52      368.592       670.96
   53      369.055       670.04
   54      369.518       669.72
   55      369.981       669.64
   56      370.444       669.46
   57      370.907       669.26
   58       371.37       669.28
   59      371.832       669.26
   60      372.295       668.92
   61      372.757       668.66
   62       373.22        668.6
   63      373.682       668.28
   64      374.145       667.92
   65      374.607       668.12
   66      375.069       668.54
   67      375.531       668.96
   68      375.993        669.5
   69      376.455       669.62
   70      376.917       669.68
   71      377.379       669.88
   72      377.841       669.54
   73      378.302          669
   74      378.764       669.04
   75      379.225       669.04
   76      379.687        668.8
   77      380.148       669.02
   78      380.609       669.32
   79      381.071        669.7
   80      381.532        670.4
   81      381.993       670.94
   82      382.454       671.22
   83      382.915       671.16
   84      383.375       670.76
   85      383.836       670.24
   86      384.297       669.84
   87      384.757        669.8
   88      385.218        669.9
   89      385.678       669.66
   90      386.138       669.38
   91      386.599       669.44
   92      387.059       669.82
   93      387.519       670.42
   94      387.979       670.82
   95      388.439       670.54
   96      388.899        669.9
   97      389.358       669.12
   98      389.818       668.42
   99      390.278       668.08
  100      390.737        668.3
  101      391.197       668.78
  102      391.656       668.86
  103      392.115       668.94
  104      392.575        669.1
  105      393.034       669.06
  106      393.493        668.9
  107      393.952       669.06
  108      394.411        669.2
  109       394.87       669.04
  110      395.328       668.58
  111      395.787       667.88
  112      396.246       667.34
  113      396.704       667.14
  114      397.163       667.66
  115      397.621       668.84
  116      398.079       669.96
  117      398.537        670.8
  118      398.995        671.1
  119      399.454       670.44
  120      399.911       669.38
  121      400.369       668.64
  122      400.827       667.92
  123      401.285        667.5
  124      401.743       667.86
  125        402.2       668.62
  126      402.658        669.3
  127      403.115       669.54
  128      403.572       669.34
  129       404.03       669.04
  130      404.487       669.08
  131      404.944       669.14
  132      405.401       669.02
  133      405.858       668.82
  134      406.315        668.5
  135      406.771        667.8
  136      407.228       667.14
  137      407.685       667.36
  138      408.141       668.34
  139      408.598        669.1
  140      409.054        669.2
  141       409.51        669.6
  142      409.967       670.08
  143      410.423       669.92
  144      410.879       669.84
  145      411.335       670.22
  146      411.791       670.56
  147      412.246       670.28
  148      412.702       669.94
  149      413.158       669.44
  150      413.613        668.9
  151      414.069       668.52
  152      414.524       668.56
  153       414.98        668.8
  154      415.435       669.34
  155       415.89       669.68
  156      416.345       669.36
  157        416.8       669.08
  158      417.255        668.8
  159       417.71       668.92
  160      418.165       669.82
  161      418.619       670.88
  162      419.074        671.4
  163      419.529       671.88
  164      419.983        672.1
  165      420.437       671.72
  166      420.892       671.22
  167      421.346       670.86
  168        421.8       670.52
  169      422.254       669.66
  170      422.708       668.46
  171      423.162       667.74
  172      423.616       667.44
  173       424.07       667.64
  174      424.523       668.18
  175      424.977       668.78
  176       425.43       669.26
  177      425.884       669.54
  178      426.337       669.12
  179       426.79        668.7
  180      427.243       668.74
  181      427.697        668.8
  182       428.15        668.5
  183      428.602       668.38
  184      429.055       668.62
  185      429.508       668.38
  186      429.961       667.34
  187      430.413       667.02
  188      430.866          667
  189      431.318       666.38
  190      431.771       666.26
  191      432.223       666.86
  192      432.675       667.18
  193      433.127       667.64
  194      433.579        668.3
  195      434.031       668.74
  196      434.483       669.36
  197      434.935       669.98
  198      435.387       670.22
  199      435.838       670.22
  200       436.29       669.92
  201      436.741       669.04
  202      437.193       668.12
  203      437.644       667.68
  204      438.095       667.78
  205      438.546       667.88
  206      438.997        667.7
  207      439.448       667.42
  208      439.899       667.18
  209       440.35       666.88
  210      440.801       666.96
  211      441.251       667.18
  212      441.702       667.36
  213      442.152        667.5
  214      442.603       667.02
  215      443.053       666.12
  216      443.503       666.04
  217      443.954       666.28
  218      444.404       666.36
  219      444.854       666.96
  220      445.304          668
  221      445.753       668.32
  222      446.203        667.9
  223      446.653        667.6
  224      447.102        667.2
  225      447.552       666.84
  226      448.001        666.7
  227      448.451       666.72
  228        448.9       666.68
  229      449.349        666.7
  230      449.798        666.7
  231      450.247       667.26
  232      450.696       667.92
  233      451.145          668
  234      451.594       668.26
  235      452.042       668.42
  236      452.491       667.92
  237      452.939       667.26
  238      453.388       666.88
  239      453.836        666.5
  240      454.285       666.06
  241      454.733       666.04
  242      455.181        666.6
  243      455.629       667.46
  244      456.077       668.58
  245      456.525        669.7
  246      456.972        670.4
  247       457.42       670.52
  248      457.868        670.2
  249      458.315       669.24
  250      458.763       668.08
  251       459.21        667.5
  252      459.657       667.28
  253      460.104        666.9
  254      460.552       666.76
  255      460.999       667.22
  256      461.446       667.68
  257      461.892       668.04
  258      462.339       668.22
  259      462.786       668.16
  260      463.233       667.44
  261      463.679       666.42
  262      464.125        665.9
  263      464.572       666.08
  264      465.018        666.5
  265      465.464       667.02
  266       465.91       667.18
  267      466.356       666.76
  268      466.802          666
  269      467.248       665.22
  270      467.694        664.6
  271       468.14          664
  272      468.585        663.9
  273      469.031       664.22
  274      469.476        664.5
  275      469.922        664.8
  276      470.367       665.26
  277      470.812       665.74
  278      471.257       666.52
  279      471.702       667.64
  280      472.147       668.86
  281      472.592       670.04
  282      473.037       670.68
  283      473.482       670.54
  284      473.926        669.5
  285      474.371       668.16
  286      474.815       666.72
  287      475.259       665.78
  288      475.704       665.34
  289      476.148       665.38
  290      476.592        665.7
  291      477.036       666.54
  292       477.48       666.82
  293      477.924       666.86
  294      478.368       667.12
  295      478.811        667.1
  296      479.255        666.5
  297      479.698       666.28
  298      480.142       665.98
  299      480.585       665.48
  300      481.028       665.36
  301      481.472       665.66
  302      481.915       666.16
  303      482.358       666.46
  304      482.801       666.78
  305      483.244        667.2
  306      483.686       667.26
  307      484.129       667.14
  308      484.572       667.16
  309      485.014       667.08
  310      485.456       666.98
  311      485.899       666.78
  312      486.341        666.5
  313      486.783       666.94
  314      487.225       667.66
  315      487.667          668
  316      488.109       668.72
  317      488.551       669.32
  318      488.993       669.14
  319      489.434       668.88
  320      489.876       668.52
  321      490.318        667.8
  322      490.759       667.24
  323        491.2        667.1
  324      491.641       666.86
  325      492.083       667.22
  326      492.524          668
  327      492.965       668.36
  328      493.406       668.02
  329      493.846       667.76
  330      494.287       667.66
  331      494.728       668.12
  332      495.168       668.98
  333      495.609       669.94
  334      496.049       670.92
  335      496.489       671.38
  336       496.93       671.26
  337       497.37       670.94
  338       497.81        670.7
  339       498.25       669.98
  340       498.69        668.7
  341      499.129        667.4
  342      499.569       666.52
  343      500.009       665.78
  344      500.448       665.44
  345      500.888       665.62
  346      501.327       665.84
  347      501.766          666
  348      502.206       666.62
  349      502.645       667.54
  350      503.084       668.38
  351      503.523       668.64
  352      503.961       668.56
  353        504.4       668.32
  354      504.839       667.92
  355      505.277        667.4
  356      505.716       667.22
  357      506.154       667.56
  358      506.593       667.92
  359      507.031       668.18
  360      507.469       668.98
  361      507.907       670.22
  362      508.345       670.66
  363      508.783        670.3
  364      509.221        670.2
  365      509.659       670.22
  366      510.096        670.1
  367      510.534        670.1
  368      510.971       670.26
  369      511.409       670.42
  370      511.846        670.4
  371      512.283       669.76
  372       512.72       669.68
  373      513.157       669.86
  374      513.594       669.38
  375      514.031        668.5
  376      514.468        668.1
  377      514.905       667.94
  378      515.341        667.9
  379      515.778       668.18
  380      516.214       668.72
  381       516.65       669.26
  382      517.087       669.32
  383      517.523       669.32
  384      517.959       669.38
  385      518.395       669.52
  386      518.831       670.08
  387      519.267        670.5
  388      519.702       670.94
  389      520.138       671.26
  390      520.574       671.44
  391      521.009       671.12
  392      521.444       670.66
  393       521.88       669.96
  394      522.315       669.12
  395       522.75       668.42
  396      523.185          668
  397       523.62       667.66
  398      524.055       667.52
  399       524.49       667.54
  400      524.924       667.86
  401      525.359       667.96
  402      525.794       668.06
  403      526.228       667.88
  404      526.662       667.96
  405      527.097       667.76
  406      527.531       667.82
  407      527.965       668.22
  408      528.399       668.84
  409      528.833       669.12
  410      529.267       669.18
  411        529.7       668.86
  412      530.134       668.56
  413      530.568       668.62
  414      531.001       668.86
  415      531.434       669.54
  416      531.868       670.44
  417      532.301        670.9
  418      532.734       671.14
  419      533.167       671.58
  420        533.6       671.74
  421      534.033       671.94
  422      534.466       672.18
  423      534.898        672.5
  424      535.331       672.86
  425      535.763       672.78
  426      536.196       671.98
  427      536.628       671.28
  428       537.06       670.98
  429      537.493        670.1
  430      537.925       668.94
  431      538.357       668.32
  432      538.788       668.44
  433       539.22       668.82
  434      539.652       669.84
  435      540.084       671.86
  436      540.515       674.82
  437      540.947        677.5
  438      541.378       679.62
  439      541.809       681.58
  440       542.24       682.94
  441      542.672       683.18
  442      543.103       683.36
  443      543.533       684.14
  444      543.964       688.06
  445      544.395       703.96
  446      544.826       740.94
  447      545.256        798.7
  448      545.687       864.82
  449      546.117       916.66
  450      546.547       938.16
  451      546.978       925.68
  452      547.408          883
  453      547.838        824.8
  454      548.268       773.68
  455      548.698       738.56
  456      549.127       714.76
  457      549.557       699.12
  458      549.987       689.28
  459      550.416       683.28
  460      550.846       679.44
  461      551.275       676.74
  462      551.704        674.9
  463      552.133       673.68
  464      552.562       672.48
  465      552.991       671.92
  466       553.42       671.82
  467      553.849       671.78
  468      554.278       672.14
  469      554.706       672.94
  470      555.135       673.68
  471      555.563       674.34
  472      555.991       675.02
  473       556.42       675.02
  474      556.848       674.44
  475      557.276       673.82
  476      557.704       673.64
  477      558.132       673.34
  478       558.56       672.98
  479      558.987        672.8
  480      559.415       672.64
  481      559.843       672.18
  482       560.27       671.82
  483      560.697       671.62
  484      561.125       671.08
  485      561.552       670.32
  486      561.979       669.84
  487      562.406       669.52
  488      562.833       669.42
  489       563.26       669.46
  490      563.686        669.5
  491      564.113        669.8
  492       564.54       670.08
  493      564.966       670.08
  494      565.392       670.28
  495      565.819       670.58
  496      566.245       670.66
  497      566.671       670.26
  498      567.097       669.76
  499      567.523       669.18
  500      567.949       668.56
  501      568.374        667.7
  502        568.8       667.36
  503      569.226       667.32
  504      569.651       667.82
  505      570.077       668.76
  506      570.502        669.9
  507      570.927       671.02
  508      571.352       672.24
  509      571.777       672.68
  510      572.202       672.52
  511      572.627       672.38
  512      573.052        672.5
  513      573.476       672.36
  514      573.901       672.66
  515      574.325       673.34
  516       574.75       674.46
  517      575.174       678.02
  518      575.598        686.8
  519      576.022       700.88
  520      576.446        718.3
  521       576.87       735.02
  522      577.294       747.68
  523      577.718       756.36
  524      578.142       761.72
  525      578.565        764.8
  526      578.989        765.6
  527      579.412       762.68
  528      579.835       754.04
  529      580.259       739.96
  530      580.682       722.96
  531      581.105       706.66
  532      581.528        694.2
  533      581.951       685.96
  534      582.373        680.7
  535      582.796        676.6
  536      583.219       674.02
  537      583.641       672.68
  538      584.063       671.62
  539      584.486       670.78
  540      584.908        670.4
  541       585.33       670.04
  542      585.752       669.78
  543      586.174       669.66
  544      586.596       669.54
  545      587.018       669.48
  546      587.439       669.52
  547      587.861       669.38
  548      588.282       669.42
  549      588.704        669.5
  550      589.125       669.24
  551      589.546        669.3
  552      589.967       669.52
  553      590.388       669.44
  554      590.809       669.22
  555       591.23       669.24
  556      591.651       669.02
  557      592.071       668.94
  558      592.492       669.08
  559      592.912        669.1
  560      593.333       668.84
  561      593.753       668.52
  562      594.173       668.04
  563      594.593       667.66
  564      595.013       667.72
  565      595.433       667.98
  566      595.853       668.56
  567      596.273       669.18
  568      596.693       669.46
  569      597.112       669.66
  570      597.532       669.88
  571      597.951       669.84
  572       598.37       669.82
  573      598.789       669.96
  574      599.208       670.26
  575      599.627        670.8
  576      600.046       670.74
  577      600.465       670.46
  578      600.884       670.88
  579      601.303       671.16
  580      601.721       670.86
  581      602.139       670.54
  582      602.558        670.1
  583      602.976        668.9
  584      603.394        667.5
  585      603.812       667.06
  586       604.23        667.5
  587      604.648       668.14
  588      605.066       669.02
  589      605.484       670.36
  590      605.901       671.38
  591      606.319        671.8
  592      606.736       671.34
  593      607.154       670.58
  594      607.571       669.92
  595      607.988       669.26
  596      608.405       669.08
  597      608.822        669.4
  598      609.239       669.84
  599      609.656        670.2
  600      610.072       670.28
  601      610.489        670.4
  602      610.905       670.42
  603      611.322       670.06
  604      611.738       669.44
  605      612.154       668.88
  606       612.57       667.76
  607      612.986       667.38
  608      613.402       667.78
  609      613.818       668.08
  610      614.234       668.54
  611       614.65       669.06
  612      615.065       669.22
  613      615.481       669.08
  614      615.896       668.86
  615      616.311       668.68
  616      616.727       668.66
  617      617.142       668.78
  618      617.557        668.7
  619      617.972       668.86
  620      618.386       668.76
  621      618.801       668.58
  622      619.216       668.28
  623       619.63          668
  624      620.045       667.88
  625      620.459       668.16
  626      620.873       668.76
  627      621.287       669.22
  628      621.702       669.88
  629      622.116       670.32
  630      622.529        670.3
  631      622.943       669.96
  632      623.357       669.98
  633      623.771       669.92
  634      624.184       669.36
  635      624.597       669.14
  636      625.011       669.64
  637      625.424       669.96
  638      625.837       669.94
  639       626.25       670.26
  640      626.663       670.54
  641      627.076       670.38
  642      627.489       670.48
  643      627.901       671.14
  644      628.314        671.8
  645      628.726       671.96
  646      629.139       671.56
  647      629.551       670.86
  648      629.963        670.1
  649      630.375       669.52
  650      630.787       669.08
  651      631.199       669.58
  652      631.611        670.4
  653      632.023       670.68
  654      632.434        670.6
  655      632.846       670.86
  656      633.257       670.82
  657      633.669       670.34
  658       634.08       669.84
  659      634.491        669.4
  660      634.902       668.72
  661      635.313        668.2
  662      635.724       667.78
  663      636.135       667.46
  664      636.545       667.82
  665      636.956        668.6
  666      637.366       668.92
  667      637.777        669.4
  668      638.187       669.92
  669      638.597       670.02
  670      639.007       669.84
  671      639.417       669.62
  672      639.827        669.2
  673      640.237       668.94
  674      640.647          669
  675      641.056       669.34
  676      641.466       669.78
  677      641.875       670.22
  678      642.285       670.62
  679      642.694       670.52
  680      643.103          670
  681      643.512       669.78
  682      643.921       670.06
  683       644.33       670.32
  684      644.739       670.68
  685      645.148       671.16
  686      645.556       670.98
  687      645.965       669.86
  688      646.373       668.86
  689      646.781       667.94
  690      647.189       667.06
  691      647.598       666.78
  692      648.006       667.02
  693      648.414       667.24
  694      648.821       667.62
  695      649.229       668.42
  696      649.637       669.54
  697      650.044       670.88
  698      650.452        671.8
  699      650.859        672.4
  700      651.266       672.88
  701      651.673        672.8
  702       652.08       672.66
  703      652.487       672.32
  704      652.894       671.12
  705      653.301          669
  706      653.708       667.18
  707      654.114       665.66
  708      654.521       665.04
  709      654.927       665.18
  710      655.333       665.82
  711       655.74       666.52
  712      656.146       666.78
  713      656.552       666.58
  714      656.958       667.08
  715      657.363        667.8
  716      657.769       668.18
  717      658.175       668.48
  718       658.58       669.22
  719      658.986       669.76
  720      659.391          670
  721      659.796       669.94
  722      660.201       669.72
  723      660.606          669
  724      661.011       667.62
  725      661.416       665.88
  726      661.821       664.82
  727      662.225       664.32
  728       662.63        664.2
  729      663.034       664.34
  730      663.439       665.32
  731      663.843        666.6
  732      664.247       667.92
  733      664.651       668.94
  734      665.055          670
  735      665.459       670.96
  736      665.863       671.44
  737      666.267        671.4
  738       666.67       671.22
  739      667.074       671.02
  740      667.477        670.4
  741       667.88       669.44
  742      668.283       668.84
  743      668.687        668.4
  744       669.09       667.66
  745      669.492       667.16
  746      669.895       666.74
  747      670.298        666.4
  748      670.701       666.48
  749      671.103       666.94
  750      671.505       667.24
  751      671.908       667.94
  752       672.31        668.1
  753      672.712        667.2
  754      673.114        666.2
  755      673.516       665.44
  756      673.918       664.58
  757       674.32       663.72
  758      674.721       663.64
  759      675.123        664.5
  760      675.524       665.88
  761      675.926       667.08
  762      676.327       668.54
  763      676.728       669.86
  764      677.129       669.72
  765       677.53       668.82
  766      677.931       668.12
  767      678.332        667.7
  768      678.732       667.28
  769      679.133       667.62
  770      679.533       668.42
  771      679.934       668.92
  772      680.334        669.4
  773      680.734       669.92
  774      681.134          670
  775      681.534       669.88
  776      681.934       670.06
  777      682.334       669.82
  778      682.733       669.68
  779      683.133       669.54
  780      683.532       669.18
  781      683.932       668.78
  782      684.331       668.42
  783       684.73       668.04
  784      685.129       668.36
  785      685.528       668.96
  786      685.927       669.38
  787      686.326       670.12
  788      686.725       670.96
  789      687.123       671.12
  790      687.522       670.78
  791       687.92       669.98
  792      688.319       668.94
  793      688.717       668.24
  794      689.115       668.18
  795      689.513       668.96
  796      689.911       670.36
  797      690.309       671.64
  798      690.706        672.5
  799      691.104       673.34
  800      691.501        673.5
  801      691.899       673.26
  802      692.296        672.7
  803      692.693       671.84
  804       693.09       670.62
  805      693.488       669.34
  806      693.884          669
  807      694.281        669.5
  808      694.678       670.68
  809      695.075        672.8
  810      695.471       675.64
  811      695.868       678.06
  812      696.264       680.64
  813       696.66       683.34
  814      697.056       684.64
  815      697.452          684
  816      697.848       681.96
  817      698.244        679.1
  818       698.64       676.02
  819      699.035        673.4
  820      699.431       672.18
  821      699.826          672
  822      700.222       671.48
  823      700.617        670.7
  824      701.012       670.32
  825      701.407        670.1
  826      701.802       669.88
  827      702.197       669.86
  828      702.592        669.8
  829      702.986       669.56
  830      703.381       669.36
  831      703.775       669.44
  832       704.17       669.96
  833      704.564       670.58
  834      704.958       670.78
  835      705.352        670.9
  836      705.746       671.56
  837       706.14       672.96
  838      706.533        674.9
  839      706.927       676.94
  840      707.321        678.5
  841      707.714        678.8
  842      708.107       677.72
  843      708.501        675.8
  844      708.894       673.98
  845      709.287       672.32
  846       709.68          671
  847      710.073        670.2
  848      710.465       669.46
  849      710.858        668.7
  850      711.251       668.42
  851      711.643       668.16
  852      712.035       668.04
  853      712.428          668
  854       712.82       668.04
  855      713.212        668.1
  856      713.604       668.32
  857      713.995       668.68
  858      714.387       669.38
  859      714.779       669.88
  860       715.17       670.02
  861      715.562       670.06
  862      715.953       669.46
  863      716.344       668.54
  864      716.735       668.12
  865      717.127       668.06
  866      717.517       667.94
  867      717.908       668.02
  868      718.299       668.82
  869       718.69       669.32
  870       719.08       668.88
  871      719.471       668.34
  872      719.861       667.56
  873      720.251       665.96
  874      720.641       664.86
  875      721.031       664.74
  876      721.421       665.34
  877      721.811       666.74
  878      722.201        668.2
  879       722.59       668.76
  880       722.98       668.68
  881      723.369       668.54
  882      723.759       668.12
  883      724.148       667.84
  884      724.537       667.72
  885      724.926       667.68
  886      725.315       667.54
  887      725.704       667.98
  888      726.092        668.8
  889      726.481       669.98
  890       726.87       670.94
  891      727.258       671.22
  892      727.646        671.1
  893      728.034       670.84
  894      728.423       670.42
  895      728.811       670.36
  896      729.198       670.78
  897      729.586       671.14
  898      729.974       671.22
  899      730.362       671.36
  900      730.749       671.54
  901      731.136        671.1
  902      731.524       670.54
  903      731.911       670.44
  904      732.298        670.3
  905      732.685       669.98
  906      733.072          670
  907      733.459       669.56
  908      733.845       668.52
  909      734.232       667.42
  910      734.618       666.34
  911      735.005       665.66
  912      735.391        665.6
  913      735.777       665.98
  914      736.163       666.82
  915      736.549       668.34
  916      736.935       670.12
  917      737.321        672.3
  918      737.706       674.78
  919      738.092       677.32
  920      738.477       679.72
  921      738.863       681.28
  922      739.248       681.58
  923      739.633       680.64
  924      740.018       678.82
  925      740.403       676.58
  926      740.788       674.42
  927      741.173       672.64
  928      741.557        671.4
  929      741.942       670.52
  930      742.326        669.9
  931      742.711       669.36
  932      743.095       668.88
  933      743.479       668.54
  934      743.863        668.4
  935      744.247       668.14
  936      744.631       668.38
  937      745.015        669.1
  938      745.398        669.3
  939      745.782       669.36
  940      746.165       669.66
  941      746.548       669.44
  942      746.932        668.9
  943      747.315        668.9
  944      747.698       668.58
  945      748.081       667.66
  946      748.463       667.42
  947      748.846       668.38
  948      749.229       670.38
  949      749.611       673.58
  950      749.993       678.46
  951      750.376       684.46
  952      750.758       690.02
  953       751.14       694.22
  954      751.522       696.96
  955      751.904       697.24
  956      752.285       693.94
  957      752.667       688.68
  958      753.049       683.04
  959       753.43       677.92
  960      753.811       673.82
  961      754.193       671.74
  962      754.574       671.52
  963      754.955       671.88
  964      755.336       672.14
  965      755.717          672
  966      756.097       671.58
  967      756.478       671.02
  968      756.858       670.62
  969      757.239       670.12
  970      757.619        670.1
  971      757.999       670.88
  972      758.379        671.1
  973      758.759       670.64
  974      759.139        670.5
  975      759.519       670.96
  976      759.899        671.2
  977      760.278       671.22
  978      760.658       671.44
  979      761.037       671.84
  980      761.417       672.34
  981      761.796       674.54
  982      762.175       680.98
  983      762.554       692.12
  984      762.933       706.74
  985      763.311        723.5
  986       763.69        740.1
  987      764.068       750.42
  988      764.447       750.44
  989      764.825       742.38
  990      765.203       728.84
  991      765.582          712
  992       765.96       696.28
  993      766.338       685.76
  994      766.715       679.36
  995      767.093       675.34
  996      767.471       672.46
  997      767.848       670.76
  998      768.226       670.04
  999      768.603       669.92
 1000       768.98       669.86
 1001      769.357       670.04
 1002      769.734       670.76
 1003      770.111        671.6
 1004      770.488       672.86
 1005      770.864       675.02
 1006      771.241       677.94
 1007      771.617       681.38
 1008      771.994       685.48
 1009       772.37       689.78
 1010      772.746       693.72
 1011      773.122       695.68
 1012      773.498       694.84
 1013      773.874       691.86
 1014       774.25       687.14
 1015      774.625       681.06
 1016      775.001       675.72
 1017      775.376       672.14
 1018      775.751       670.06
 1019      776.127       668.96
 1020      776.502       668.64
 1021      776.877        668.9
 1022      777.252       669.16
 1023      777.626       668.82
 1024      778.001       668.02
 1025      778.375       667.24
 1026       778.75       666.86
 1027      779.124       666.68
 1028      779.499       666.74
 1029      779.873       667.02
 1030      780.247       667.52
 1031      780.621       667.76
 1032      780.994       667.96
 1033      781.368       668.22
 1034      781.742       668.18
 1035      782.115       668.32
 1036      782.489       668.52
 1037      782.862       668.72
 1038      783.235       669.22
 1039      783.608       669.74
 1040      783.981        669.7
 1041      784.354       669.82
 1042      784.727       669.66
 1043        785.1       668.64
 1044      785.472       668.14
 1045      785.845       668.34
 1046      786.217          668
 1047      786.589       667.58
 1048      786.961       667.76
 1049      787.333       668.04
 1050      787.705       668.36
 1051      788.077          669
 1052      788.449       669.86
 1053       788.82        670.9
 1054      789.192       671.72
 1055      789.563       672.08
 1056      789.934       672.12
 1057      790.306       671.76
 1058      790.677       671.18
 1059      791.048       670.62
 1060      791.419       670.14
 1061      791.789       670.28
 1062       792.16       670.76
 1063       792.53       670.94
 1064      792.901       671.18
 1065      793.271        672.1
 1066      793.641       673.12
 1067      794.012       674.76
 1068      794.382        678.1
 1069      794.751       682.16
 1070      795.121       685.74
 1071      795.491        688.1
 1072      795.861        688.5
 1073       796.23       686.24
 1074      796.599       682.56
 1075      796.969       678.48
 1076      797.338       674.58
 1077      797.707       671.86
 1078      798.076       670.44
 1079      798.445        669.4
 1080      798.813       668.56
 1081      799.182       668.82
 1082       799.55       670.04
 1083      799.919       672.62
 1084      800.287        676.5
 1085      800.655       681.26
 1086      801.023       686.74
 1087      801.391        691.9
 1088      801.759       695.38
 1089      802.127       697.08
 1090      802.495       696.44
 1091      802.862        693.4
 1092       803.23        689.3
 1093      803.597       684.66
 1094      803.964       680.24
 1095      804.331       676.84
 1096      804.698       674.12
 1097      805.065       672.36
 1098      805.432        671.4
 1099      805.799       670.54
 1100      806.165       670.12
 1101      806.532        670.4
 1102      806.898       670.66
 1103      807.264       670.84
 1104      807.631       671.08
 1105      807.997       671.22
 1106      808.363       671.46
 1107      808.728       672.04
 1108      809.094       673.32
 1109       809.46       676.52
 1110      809.825       682.38
 1111      810.191       690.44
 1112      810.556       701.44
 1113      810.921       715.16
 1114      811.286       729.14
 1115      811.651       742.38
 1116      812.016       752.86
 1117      812.381       755.48
 1118      812.745       749.56
 1119       813.11       738.18
 1120      813.474       722.56
 1121      813.839       705.48
 1122      814.203        691.8
 1123      814.567       682.78
 1124      814.931       677.32
 1125      815.295       674.34
 1126      815.659       672.96
 1127      816.022       672.38
 1128      816.386       671.76
 1129      816.749       670.88
 1130      817.113       670.12
 1131      817.476       669.36
 1132      817.839       668.84
 1133      818.202       669.32
 1134      818.565       669.94
 1135      818.928       670.14
 1136      819.291       670.26
 1137      819.653       670.12
 1138      820.016       669.58
 1139      820.378       669.26
 1140       820.74       669.42
 1141      821.102       669.64
 1142      821.464       670.06
 1143      821.826       670.26
 1144      822.188       670.14
 1145       822.55       670.04
 1146      822.912       670.14
 1147      823.273       669.94
 1148      823.634        669.6
 1149      823.996        669.3
 1150      824.357       668.58
 1151      824.718       667.44
 1152      825.079       667.08
 1153       825.44       668.32
 1154      825.801        670.8
 1155      826.161        674.2
 1156      826.522       678.54
 1157      826.882        682.4
 1158      827.242       684.48
 1159      827.603        684.4
 1160      827.963       682.78
 1161      828.323       680.52
 1162      828.682       678.22
 1163      829.042       676.06
 1164      829.402       674.66
 1165      829.761       673.64
 1166      830.121       672.16
 1167       830.48          671
 1168      830.839       670.34
 1169      831.198       670.02
 1170      831.557       670.38
 1171      831.916       670.94
 1172      832.275       670.84
 1173      832.634       670.94
 1174      832.992       671.06
 1175      833.351       670.64
 1176      833.709       670.44
 1177      834.067        670.4
 1178      834.425        669.9
 1179      834.783       669.56
 1180      835.141        669.4
 1181      835.499       668.88
 1182      835.857       668.18
 1183      836.214        668.1
 1184      836.572       668.54
 1185      836.929       668.92
 1186      837.286       669.66
 1187      837.644       670.78
 1188      838.001       671.44
 1189      838.357       671.46
 1190      838.714       671.72
 1191      839.071          672
 1192      839.428       671.98
 1193      839.784       672.14
 1194       840.14       673.28
 1195      840.497       675.64
 1196      840.853       678.62
 1197      841.209       683.12
 1198      841.565       688.32
 1199       841.92       692.32
 1200      842.276       695.04
 1201      842.632       697.94
 1202      842.987       700.14
 1203      843.343       700.56
 1204      843.698       699.54
 1205      844.053       697.06
 1206      844.408       692.62
 1207      844.763        686.3
 1208      845.118       680.26
 1209      845.472       675.92
 1210      845.827       672.72
 1211      846.181       670.46
 1212      846.536       669.58
 1213       846.89       669.24
 1214      847.244        668.4
 1215      847.598          668
 1216      847.952        668.1
 1217      848.306       667.86
 1218       848.66       667.56
 1219      849.013       667.34
 1220      849.367       667.04
 1221       849.72       666.16
 1222      850.073       665.98
 1223      850.427       666.04
 1224       850.78        666.1
 1225      851.133       666.48
 1226      851.485        668.1
 1227      851.838       669.98
 1228      852.191       671.92
 1229      852.543       674.22
 1230      852.896       676.08
 1231      853.248        676.7
 1232        853.6       676.42
 1233      853.952        675.5
 1234      854.304       673.64
 1235      854.656       671.88
 1236      855.007       670.62
 1237      855.359       669.46
 1238       855.71       668.42
 1239      856.062       668.24
 1240      856.413       668.22
 1241      856.764          668
 1242      857.115       667.74
 1243      857.466       667.74
 1244      857.817       667.74
 1245      858.168       667.16
 1246      858.518       666.28
 1247      858.869       665.76
 1248      859.219       665.62
 1249      859.569       665.84
 1250       859.92       666.24
 1251       860.27       667.06
 1252      860.619       667.76
 1253      860.969       668.32
 1254      861.319       668.68
 1255      861.669       669.16
 1256      862.018       669.28
 1257      862.367        669.3
 1258      862.717       669.14
 1259      863.066       668.98
 1260      863.415       668.88
 1261      863.764       668.94
 1262      864.112       668.86
 1263      864.461       668.54
 1264       864.81       667.68
 1265      865.158       666.72
 1266      865.507       665.94
 1267      865.855        665.5
 1268      866.203       665.48
 1269      866.551       666.22
 1270      866.899       667.28
 1271      867.247       667.96
 1272      867.594       667.98
 1273      867.942       667.96
 1274      868.289       668.02
 1275      868.637        667.9
 1276      868.984       667.72
 1277      869.331       668.22
 1278      869.678       668.68
 1279      870.025        668.3
 1280      870.372       667.74
 1281      870.718        667.6
 1282      871.065       667.76
 1283      871.411       668.08
 1284      871.758       669.06
 1285      872.104        669.8
 1286       872.45       670.12
 1287      872.796       669.96
 1288      873.142       669.76
 1289      873.488        669.1
 1290      873.833        668.8
 1291      874.179       668.76
 1292      874.524       668.48
 1293      874.869       668.16
 1294      875.215       668.08
 1295       875.56       668.06
 1296      875.905       668.18
 1297       876.25        668.3
 1298      876.594       668.24
 1299      876.939       668.32
 1300      877.283       668.04
 1301      877.628       667.68
 1302      877.972        667.8
 1303      878.316       668.08
 1304       878.66        668.1
 1305      879.004        668.3
 1306      879.348        668.8
 1307      879.692       668.88
 1308      880.035       668.76
 1309      880.379       669.06
 1310      880.722        669.4
 1311      881.066        668.9
 1312      881.409       668.24
 1313      881.752       667.66
 1314      882.095       666.56
 1315      882.438       665.74
 1316       882.78       665.76
 1317      883.123        666.1
 1318      883.465       666.46
 1319      883.808       666.98
 1320       884.15       667.78
 1321      884.492       668.52
 1322      884.834       668.96
 1323      885.176       669.14
 1324      885.518       669.26
 1325      885.859       668.48
 1326      886.201       667.38
 1327      886.542       666.64
 1328      886.884       666.44
 1329      887.225       667.06
 1330      887.566       668.24
 1331      887.907        668.9
 1332      888.248       669.22
 1333      888.589       669.44
 1334      888.929       669.08
 1335       889.27       668.82
 1336       889.61       669.22
 1337      889.951       669.74
 1338      890.291       669.74
 1339      890.631       669.36
 1340      890.971       668.64
 1341      891.311       667.64
 1342       891.65       667.04
 1343       891.99       667.06
 1344      892.329        667.3
 1345      892.669       667.72
 1346      893.008       668.72
 1347      893.347       669.82
 1348      893.686       670.58
 1349      894.025       671.12
 1350      894.364       671.66
 1351      894.703       671.56
 1352      895.041        671.2
 1353       895.38       670.72
 1354      895.718       669.84
 1355      896.056       668.66
 1356      896.395       668.06
 1357      896.733       667.58
 1358      897.071       667.16
 1359      897.408       667.42
 1360      897.746          668
 1361      898.084       668.28
 1362      898.421       668.76
 1363      898.758       669.08
 1364      899.095       668.88
 1365      899.433       668.48
 1366       899.77       668.04
 1367      900.106       667.18
 1368      900.443        666.6
 1369       900.78       666.54
 1370      901.116       666.96
 1371      901.453       667.78
 1372      901.789       668.56
 1373      902.125        669.1
 1374      902.461       669.52
 1375      902.797       669.38
 1376      903.133        668.7
 1377      903.469       668.24
 1378      903.804       667.98
 1379       904.14       667.56
 1380      904.475        667.1
 1381       904.81       666.82
 1382      905.146       666.66
 1383      905.481        666.7
 1384      905.815       666.88
 1385       906.15        667.2
 1386      906.485       667.62
 1387      906.819       667.98
 1388      907.154       667.94
 1389      907.488       667.46
 1390      907.822       666.78
 1391      908.156       666.32
 1392       908.49       666.18
 1393      908.824       666.32
 1394      909.158       666.76
 1395      909.492        667.4
 1396      909.825        667.7
 1397      910.159       667.58
 1398      910.492        667.9
 1399      910.825        668.6
 1400      911.158        669.3
 1401      911.491       670.14
 1402      911.824       670.76
 1403      912.157       670.78
 1404      912.489       671.06
 1405      912.822       671.76
 1406      913.154       672.56
 1407      913.486       674.48
 1408      913.818       677.54
 1409       914.15       681.46
 1410      914.482       685.64
 1411      914.814       688.82
 1412      915.146       689.52
 1413      915.477       688.18
 1414      915.809       684.88
 1415       916.14       680.92
 1416      916.471       677.36
 1417      916.802        674.5
 1418      917.133       672.14
 1419      917.464       670.18
 1420      917.795        668.1
 1421      918.125        666.3
 1422      918.456       665.48
 1423      918.786       665.34
 1424      919.116       665.48
 1425      919.446        665.8
 1426      919.776        666.4
 1427      920.106       666.96
 1428      920.436       667.54
 1429      920.766        668.1
 1430      921.095       668.56
 1431      921.425       668.78
 1432      921.754       668.88
 1433      922.083        668.9
 1434      922.412       668.78
 1435      922.741       668.82
 1436       923.07       669.02
 1437      923.399       669.28
 1438      923.727       669.74
 1439      924.056        670.6
 1440      924.384        671.7
 1441      924.713        672.7
 1442      925.041       673.42
 1443      925.369       673.44
 1444      925.697       672.96
 1445      926.024        672.2
 1446      926.352        670.8
 1447       926.68       669.36
 1448      927.007       668.66
 1449      927.334       668.34
 1450      927.662       667.92
 1451      927.989       668.06
 1452      928.316       668.74
 1453      928.643       669.52
 1454      928.969        670.3
 1455      929.296       671.06
 1456      929.622        671.6
 1457      929.949       671.16
 1458      930.275       670.04
 1459      930.601       668.98
 1460      930.927       668.16
 1461      931.253        667.2
 1462      931.579       666.46
 1463      931.905       666.06
 1464       932.23       666.16
 1465      932.556       666.12
 1466      932.881       666.28
 1467      933.206       667.02
 1468      933.531       667.68
 1469      933.856       667.68
 1470      934.181       668.02
 1471      934.506       669.16
 1472       934.83       670.38
 1473      935.155       671.32
 1474      935.479        671.8
 1475      935.803       671.62
 1476      936.128       670.94
 1477      936.452       670.18
 1478      936.775       669.82
 1479      937.099       669.48
 1480      937.423       669.34
 1481      937.746       669.26
 1482       938.07        669.1
 1483      938.393       669.04
 1484      938.716       668.94
 1485      939.039        668.9
 1486      939.362       668.66
 1487      939.685       667.68
 1488      940.008       666.44
 1489      940.331       666.08
 1490      940.653        666.1
 1491      940.975       666.34
 1492      941.298       667.24
 1493       941.62        667.9
 1494      941.942          668
 1495      942.264       667.76
 1496      942.585        667.2
 1497      942.907       667.12
 1498      943.229       667.78
 1499       943.55        668.1
 1500      943.871        668.3
 1501      944.192       668.86
 1502      944.513       668.88
 1503      944.834       668.46
 1504      945.155       668.82
 1505      945.476       669.24
 1506      945.796        669.1
 1507      946.117       668.86
 1508      946.437       668.66
 1509      946.757       668.32
 1510      947.078        668.2
 1511      947.398       668.08
 1512      947.717       667.74
 1513      948.037       667.38
 1514      948.357        666.6
 1515      948.676        665.7
 1516      948.996       665.14
 1517      949.315       664.96
 1518      949.634       665.04
 1519      949.953       665.88
 1520      950.272       666.48
 1521      950.591       666.76
 1522      950.909       666.86
 1523      951.228       667.06
 1524      951.546       666.72
 1525      951.865       666.28
 1526      952.183       666.06
 1527      952.501        666.2
 1528      952.819       665.92
 1529      953.137       665.72
 1530      953.454       665.86
 1531      953.772          666
 1532      954.089       666.02
 1533      954.407       665.96
 1534      954.724       666.16
 1535      955.041       666.62
 1536      955.358        667.4
 1537      955.675       668.52
 1538      955.992       669.42
 1539      956.308       669.54
 1540      956.625       669.46
 1541      956.941       669.42
 1542      957.257       668.96
 1543      957.574       668.34
 1544       957.89       667.68
 1545      958.206       666.58
 1546      958.521       665.76
 1547      958.837       665.82
 1548      959.152       666.46
 1549      959.468       667.36
 1550      959.783       668.78
 1551      960.098       670.04
 1552      960.413       670.26
 1553      960.728       670.34
 1554      961.043          671
 1555      961.358       671.16
 1556      961.672        670.5
 1557      961.987        669.9
 1558      962.301       669.06
 1559      962.615       667.92
 1560       962.93       667.34
 1561      963.244       667.42
 1562      963.557       667.86
 1563      963.871       668.68
 1564      964.185       669.24
 1565      964.498        669.2
 1566      964.812       668.62
 1567      965.125       667.68
 1568      965.438       667.04
 1569      965.751        666.7
 1570      966.064       666.62
 1571      966.377       667.24
 1572      966.689          668
 1573      967.002       668.42
 1574      967.314       668.86
 1575      967.626       669.42
 1576      967.939       669.42
 1577      968.251       669.06
 1578      968.563       668.52
 1579      968.874        668.2
 1580      969.186        668.5
 1581      969.498       669.18
 1582      969.809       670.12
 1583       970.12       671.32
 1584      970.431       672.12
 1585      970.743       671.68
 1586      971.053       670.96
 1587      971.364       670.38
 1588      971.675        669.5
 1589      971.986        668.4
 1590      972.296       667.68
 1591      972.606       667.28
 1592      972.917       666.82
 1593      973.227        666.3
 1594      973.537       666.06
 1595      973.847       666.28
 1596      974.156       666.56
 1597      974.466          667
 1598      974.775       667.38
 1599      975.085       667.78
 1600      975.394       668.14
 1601      975.703        668.5
 1602      976.012       668.82
 1603      976.321       669.34
 1604       976.63       669.74
 1605      976.938        669.6
 1606      977.247       668.92
 1607      977.555       668.44
 1608      977.863       668.42
 1609      978.172       668.58
 1610       978.48       669.36
 1611      978.787       670.48
 1612      979.095       671.06
 1613      979.403        670.9
 1614       979.71        669.8
 1615      980.018       668.06
 1616      980.325       666.58
 1617      980.632       665.82
 1618      980.939       665.78
 1619      981.246       666.56
 1620      981.553       667.64
 1621       981.86       668.12
 1622      982.166       667.98
 1623      982.473        667.4
 1624      982.779       666.88
 1625      983.085       666.68
 1626      983.391       666.46
 1627      983.697       666.02
 1628      984.003       665.66
 1629      984.309       665.68
 1630      984.614        665.6
 1631       984.92        666.1
 1632      985.225       667.16
 1633       985.53       668.08
 1634      985.835        668.4
 1635       986.14       668.46
 1636      986.445       668.14
 1637       986.75       667.56
 1638      987.054       667.04
 1639      987.359        666.9
 1640      987.663        667.1
 1641      987.967       667.46
 1642      988.271       667.96
 1643      988.575       668.62
 1644      988.879       669.62
 1645      989.183       670.42
 1646      989.487       670.76
 1647       989.79       670.62
 1648      990.093       670.54
 1649      990.397       670.54
 1650        990.7       670.48
 1651      991.003       670.52
 1652      991.306       670.76
 1653      991.608          671
 1654      991.911       670.82
 1655      992.213       670.64
 1656      992.516       670.32
 1657      992.818       669.84
 1658       993.12        668.9
 1659      993.422       667.58
 1660      993.724       666.34
 1661      994.026       665.68
 1662      994.327       665.58
 1663      994.629          666
 1664       994.93       666.92
 1665      995.232       668.04
 1666      995.533       668.84
 1667      995.834       669.08
 1668      996.135       668.66
 1669      996.435       667.82
 1670      996.736       666.92
 1671      997.036       666.08
 1672      997.337       665.92
 1673      997.637       666.18
 1674      997.937        666.4
 1675      998.237       666.44
 1676      998.537        666.8
 1677      998.837       667.18
 1678      999.137        667.8
 1679      999.436       668.72
 1680      999.735       669.28
 1681      1000.03       669.64
 1682      1000.33       670.12
 1683      1000.63       670.58
 1684      1000.93       670.62
 1685      1001.23       670.14
 1686      1001.53       668.94
 1687      1001.83        667.5
 1688      1002.13       666.26
 1689      1002.42       665.28
 1690      1002.72       665.26
 1691      1003.02        666.2
 1692      1003.32        666.7
 1693      1003.62       666.74
 1694      1003.91       666.72
 1695      1004.21       666.46
 1696      1004.51        665.9
 1697      1004.81        665.3
 1698       1005.1       664.92
 1699       1005.4        664.7
 1700       1005.7       664.82
 1701      1005.99       665.26
 1702      1006.29       665.74
 1703      1006.59       666.16
 1704      1006.88       666.64
 1705      1007.18       666.68
 1706      1007.48       666.44
 1707      1007.77       666.62
 1708      1008.07        666.6
 1709      1008.36       666.54
 1710      1008.66       666.86
 1711      1008.95       667.22
 1712      1009.25       667.38
 1713      1009.55       667.48
 1714      1009.84       667.44
 1715      1010.14        667.4
 1716      1010.43       667.18
 1717      1010.73       666.76
 1718      1011.02       666.42
 1719      1011.31       666.76
 1720      1011.61       667.26
 1721       1011.9       667.92
 1722       1012.2       668.86
 1723      1012.49        669.8
 1724      1012.79       670.24
 1725      1013.08       670.34
 1726      1013.37       669.98
 1727      1013.67       669.44
 1728      1013.96       669.18
 1729      1014.25       668.72
 1730      1014.55       668.22
 1731      1014.84       668.44
 1732      1015.13       668.96
 1733      1015.42       669.24
 1734      1015.72       669.88
 1735      1016.01       670.72
 1736       1016.3       670.96
 1737      1016.59       671.16
 1738      1016.89       671.82
 1739      1017.18       672.06
 1740      1017.47       671.62
 1741      1017.76       671.16
 1742      1018.05       670.32
 1743      1018.35       669.12
 1744      1018.64       668.02
 1745      1018.93       667.86
 1746      1019.22       668.02
 1747      1019.51       667.72
 1748       1019.8       667.58
 1749      1020.09       668.16
 1750      1020.38       668.74
 1751      1020.67       668.98
 1752      1020.96       669.38
 1753      1021.25       669.56
 1754      1021.54       669.38
 1755      1021.83       668.82
 1756      1022.12       668.68
 1757      1022.41       669.14
 1758       1022.7       669.18
 1759      1022.99       668.74
 1760      1023.28       668.68
 1761      1023.57       668.66
 1762      1023.86       668.38
 1763      1024.15       668.18
 1764      1024.44       668.04
 1765      1024.73       667.92
 1766      1025.02       668.14
 1767       1025.3       668.52
 1768      1025.59       668.82
 1769      1025.88       669.56
 1770      1026.17       670.38
 1771      1026.46       670.52
 1772      1026.74       670.48
 1773      1027.03       671.26
 1774      1027.32       671.88
 1775      1027.61       671.76
 1776      1027.89       671.68
 1777      1028.18        671.4
 1778      1028.47        670.8
 1779      1028.76          670
 1780      1029.04       669.04
 1781      1029.33       668.42
 1782      1029.62       668.48
 1783       1029.9       668.66
 1784      1030.19       668.86
 1785      1030.47       669.26
 1786      1030.76       669.48
 1787      1031.05       669.62
 1788      1031.33       669.28
 1789      1031.62        668.7
 1790       1031.9        668.2
 1791      1032.19       667.78
 1792      1032.47       667.24
 1793      1032.76        667.3
 1794      1033.04       667.76
 1795      1033.33       667.78
 1796      1033.61       667.84
 1797       1033.9       668.16
 1798      1034.18       667.98
 1799      1034.47        667.8
 1800      1034.75       668.56
 1801      1035.04       669.14
 1802      1035.32       669.48
 1803       1035.6          670
 1804      1035.89        669.7
 1805      1036.17       668.98
 1806      1036.45       668.54
 1807      1036.74       667.72
 1808      1037.02        666.8
 1809       1037.3       667.02
 1810      1037.59       667.56
 1811      1037.87       667.82
 1812      1038.15       668.56
 1813      1038.44       669.96
 1814      1038.72       670.72
 1815         1039       670.94
 1816      1039.28        671.5
 1817      1039.56       672.02
 1818      1039.85       671.78
 1819      1040.13       671.38
 1820      1040.41       671.42
 1821      1040.69       671.26
 1822      1040.97       670.82
 1823      1041.25        670.3
 1824      1041.54       670.22
 1825      1041.82       670.32
 1826       1042.1        670.5
 1827      1042.38       670.68
 1828      1042.66       671.24
 1829      1042.94        671.4
 1830      1043.22       670.72
 1831       1043.5       669.98
 1832      1043.78       669.58
 1833      1044.06       668.82
 1834      1044.34        668.4
 1835      1044.62       668.64
 1836       1044.9       668.94
 1837      1045.18       669.16
 1838      1045.46       669.52
 1839      1045.74       669.92
 1840      1046.02       670.16
 1841       1046.3       670.38
 1842      1046.58       670.56
 1843      1046.85       671.06
 1844      1047.13       671.62
 1845      1047.41          672
 1846      1047.69       672.14
 1847      1047.97       672.26
 1848      1048.25       672.04
 1849      1048.52       671.34
 1850       1048.8        670.5
 1851      1049.08       669.74
 1852      1049.36       668.88
 1853      1049.63       667.74
 1854      1049.91       667.28
 1855      1050.19       667.96
 1856      1050.47       668.54
 1857      1050.74       668.76
 1858      1051.02        669.6
 1859       1051.3        669.6
 1860      1051.57       668.54
 1861      1051.85        668.2
 1862      1052.13       668.54
 1863       1052.4       668.84
 1864      1052.68       669.64
 1865      1052.95       670.62
 1866      1053.23       670.86
 1867      1053.51       670.68
 1868      1053.78        670.3
 1869      1054.06       669.94
 1870      1054.33       669.66
 1871      1054.61        669.5
 1872      1054.88       669.38
 1873      1055.16       669.14
 1874      1055.43       668.58
 1875      1055.71       667.92
 1876      1055.98       667.46
 1877      1056.25       666.74
 1878      1056.53       666.52
 1879       1056.8          667
 1880      1057.08        666.9
 1881      1057.35        666.9
 1882      1057.62       667.46
 1883       1057.9       667.82
 1884      1058.17       668.04
 1885      1058.45        668.4
 1886      1058.72       668.38
 1887      1058.99       668.68
 1888      1059.26       668.84
 1889      1059.54       668.28
 1890      1059.81       668.26
 1891      1060.08       668.72
 1892      1060.35       668.32
 1893      1060.63        667.7
 1894       1060.9        667.8
 1895      1061.17       667.98
 1896      1061.44       668.08
 1897      1061.71        668.4
 1898      1061.99        668.8
 1899      1062.26        668.7
 1900      1062.53       668.32
 1901       1062.8       668.04
 1902      1063.07       667.88
 1903      1063.34       667.48
 1904      1063.61       667.32
 1905      1063.88       667.54
 1906      1064.15       667.48
 1907      1064.42          667
 1908       1064.7       666.88
 1909      1064.97       667.22
 1910      1065.24       667.36
 1911      1065.51       667.54
 1912      1065.78       668.26
 1913      1066.04       668.86
 1914      1066.31       669.28
 1915      1066.58       669.78
 1916      1066.85       669.96
 1917      1067.12        669.7
 1918      1067.39       669.06
 1919      1067.66       668.04
 1920      1067.93       667.66
 1921       1068.2       667.52
 1922      1068.47        667.2
 1923      1068.73       667.48
 1924         1069       668.28
 1925      1069.27       668.38
 1926      1069.54       668.36
 1927      1069.81       668.64
 1928      1070.07        668.6
 1929      1070.34        668.2
 1930      1070.61        667.8
 1931      1070.88       667.68
 1932      1071.14       667.84
 1933      1071.41       668.06
 1934      1071.68       668.18
 1935      1071.94       668.28
 1936      1072.21          668
 1937      1072.48       667.56
 1938      1072.74       667.42
 1939      1073.01       667.38
 1940      1073.28        667.4
 1941      1073.54       667.66
 1942      1073.81       667.82
 1943      1074.07        667.7
 1944      1074.34       667.26
 1945       1074.6       666.64
 1946      1074.87       665.94
 1947      1075.13       665.68
 1948       1075.4       665.48
 1949      1075.66       665.32
 1950      1075.93        665.6
 1951      1076.19        666.3
 1952      1076.46       666.56
 1953      1076.72       666.38
 1954      1076.99       666.32
 1955      1077.25       666.14
 1956      1077.52       665.92
 1957      1077.78       666.14
 1958      1078.04       666.92
 1959      1078.31       667.92
 1960      1078.57       668.86
 1961      1078.83       669.54
 1962       1079.1        669.9
 1963      1079.36       669.78
 1964      1079.62       669.56
 1965      1079.89       669.04
 1966      1080.15       668.46
 1967      1080.41       668.16
 1968      1080.67       668.04
 1969      1080.94          668
 1970       1081.2       668.24
 1971      1081.46       668.52
 1972      1081.72       668.72
 1973      1081.98       668.76
 1974      1082.24       668.82
 1975      1082.51       668.82
 1976      1082.77       668.64
 1977      1083.03       668.38
 1978      1083.29       668.54
 1979      1083.55       668.58
 1980      1083.81       668.54
 1981      1084.07       668.42
 1982      1084.33       668.34
 1983      1084.59       668.28
 1984      1084.85        667.9
 1985      1085.11       667.84
 1986      1085.37        668.1
 1987      1085.63        668.1
 1988      1085.89       668.04
 1989      1086.15       668.62
 1990      1086.41       668.88
 1991      1086.67       668.68
 1992      1086.93       668.58
 1993      1087.19       668.18
 1994      1087.45       667.38
 1995      1087.71       666.74
 1996      1087.97       666.58
 1997      1088.23       666.62
 1998      1088.48        667.3
 1999      1088.74       668.34
 2000         1089       669.42
 2001      1089.26       670.26
 2002      1089.52        670.7
 2003      1089.77        670.9
 2004      1090.03       670.74
 2005      1090.29        670.3
 2006      1090.55       670.26
 2007       1090.8       670.42
 2008      1091.06       670.36
 2009      1091.32       670.28
 2010      1091.57       670.06
 2011      1091.83       669.46
 2012      1092.09       668.98
 2013      1092.34          669
 2014       1092.6       669.18
 2015      1092.86       669.66
 2016      1093.11       670.24
 2017      1093.37       670.72
 2018      1093.62        671.1
 2019      1093.88       671.62
 2020      1094.13        671.9
 2021      1094.39       671.76
 2022      1094.65       671.52
 2023       1094.9        670.9
 2024      1095.16          670
 2025      1095.41       669.38
 2026      1095.66       669.02
 2027      1095.92       668.56
 2028      1096.17       668.44
 2029      1096.43       668.64
 2030      1096.68       668.72
 2031      1096.94       668.74
 2032      1097.19       668.52
 2033      1097.44          668
 2034       1097.7       667.54
 2035      1097.95       667.24
 2036       1098.2       667.08
 2037      1098.46        667.4
 2038      1098.71        667.8
 2039      1098.96       667.82
 2040      1099.22       667.96
 2041      1099.47       668.14
 2042      1099.72       668.38
 2043      1099.97       668.48
 2044      1100.23        668.1
 2045      1100.48       668.38
 2046      1100.73      668.325
 2047      1100.98      668.067
