scansci Spectrometer Data File
--- Measurement Setting ---
Type: Sample Spectrum
Date: Mon Oct 16 17:38:57 2023
User: (Reserved by scansci)
Serial: (Reserved by scansci)
Channel: No. 11
Integration Time: 1
Average: 10
Boxcar: 2
Electrical Dark: No-corrected
Time Normalize: (Reserved by scansci)
Dual-beam: (Reserved by scansci)
Reference Ch: (Reserved by scansci)
--- Measurement Data ---
Pixel   Wavelength   Intensity
    0        344.4      588.067
    1      344.867      588.625
    2      345.334       588.84
    3      345.801       589.04
    4      346.268       588.84
    5      346.735          588
    6      347.202       586.78
    7      347.669        585.6
    8      348.135       584.94
    9      348.602        584.8
   10      349.068        585.2
   11      349.535          586
   12      350.001       586.82
   13      350.467       586.98
   14      350.933        586.7
   15      351.399        585.8
   16      351.866       584.82
   17      352.331       584.14
   18      352.797       584.26
   19      353.263       585.04
   20      353.729       586.02
   21      354.194        586.8
   22       354.66        587.4
   23      355.126       587.32
   24      355.591       586.86
   25      356.056        586.6
   26      356.522       586.08
   27      356.987       585.18
   28      357.452        584.4
   29      357.917       584.02
   30      358.382          584
   31      358.847       584.42
   32      359.312       585.18
   33      359.776       585.96
   34      360.241        586.5
   35      360.706       586.84
   36       361.17       587.06
   37      361.634       587.08
   38      362.099       587.48
   39      362.563       587.98
   40      363.027       588.02
   41      363.491       587.98
   42      363.955       587.98
   43      364.419       587.16
   44      364.883        586.3
   45      365.347       586.42
   46      365.811       586.56
   47      366.274       586.58
   48      366.738       587.12
   49      367.201       587.82
   50      367.665       587.96
   51      368.128       588.08
   52      368.592       588.08
   53      369.055       587.64
   54      369.518       586.92
   55      369.981        586.3
   56      370.444        585.8
   57      370.907       585.72
   58       371.37       586.02
   59      371.832       586.24
   60      372.295       586.16
   61      372.757       586.18
   62       373.22       586.12
   63      373.682       585.86
   64      374.145        585.8
   65      374.607       586.32
   66      375.069        587.1
   67      375.531       587.64
   68      375.993       588.44
   69      376.455        589.1
   70      376.917       589.28
   71      377.379       589.06
   72      377.841       588.48
   73      378.302       587.28
   74      378.764        586.3
   75      379.225       585.72
   76      379.687       585.54
   77      380.148       585.92
   78      380.609       586.66
   79      381.071        587.2
   80      381.532       587.38
   81      381.993       587.12
   82      382.454       586.56
   83      382.915       586.02
   84      383.375        585.6
   85      383.836       585.04
   86      384.297        584.8
   87      384.757       585.14
   88      385.218       585.56
   89      385.678       585.42
   90      386.138       585.62
   91      386.599        585.9
   92      387.059       585.72
   93      387.519       585.32
   94      387.979       585.28
   95      388.439       584.84
   96      388.899       583.38
   97      389.358       582.48
   98      389.818        582.8
   99      390.278       583.56
  100      390.737       584.38
  101      391.197       585.86
  102      391.656       586.94
  103      392.115       587.02
  104      392.575       586.68
  105      393.034       586.24
  106      393.493       585.82
  107      393.952       586.04
  108      394.411       586.52
  109       394.87       586.82
  110      395.328       587.04
  111      395.787       587.36
  112      396.246       587.62
  113      396.704        587.7
  114      397.163       587.76
  115      397.621       587.82
  116      398.079       587.74
  117      398.537       587.58
  118      398.995       587.64
  119      399.454       587.96
  120      399.911       588.68
  121      400.369       589.18
  122      400.827          589
  123      401.285        588.9
  124      401.743       588.72
  125        402.2       588.08
  126      402.658       587.44
  127      403.115       587.18
  128      403.572       586.62
  129       404.03       586.24
  130      404.487       585.62
  131      404.944       585.28
  132      405.401          585
  133      405.858          585
  134      406.315       584.56
  135      406.771       584.78
  136      407.228       585.04
  137      407.685        585.4
  138      408.141       585.76
  139      408.598       586.56
  140      409.054       586.92
  141       409.51       587.18
  142      409.967        587.4
  143      410.423       587.36
  144      410.879       587.12
  145      411.335       587.04
  146      411.791       586.92
  147      412.246        586.6
  148      412.702       586.58
  149      413.158          587
  150      413.613       587.76
  151      414.069       588.56
  152      414.524       589.24
  153       414.98        589.7
  154      415.435       589.62
  155       415.89       589.44
  156      416.345       589.42
  157        416.8       589.46
  158      417.255       589.66
  159       417.71       589.72
  160      418.165       589.44
  161      418.619       589.36
  162      419.074       589.46
  163      419.529        589.2
  164      419.983       588.86
  165      420.437       588.24
  166      420.892        587.1
  167      421.346       586.38
  168        421.8       585.88
  169      422.254       585.68
  170      422.708       585.96
  171      423.162       586.34
  172      423.616       586.42
  173       424.07       587.06
  174      424.523       587.94
  175      424.977       588.72
  176       425.43        589.5
  177      425.884       589.82
  178      426.337       589.54
  179       426.79       588.98
  180      427.243        588.6
  181      427.697       588.34
  182       428.15       588.18
  183      428.602        587.6
  184      429.055       587.16
  185      429.508       586.82
  186      429.961       586.12
  187      430.413        585.3
  188      430.866       585.18
  189      431.318       585.16
  190      431.771        585.1
  191      432.223       584.88
  192      432.675       585.18
  193      433.127       585.44
  194      433.579       585.36
  195      434.031       584.94
  196      434.483       585.06
  197      434.935        585.2
  198      435.387       585.58
  199      435.838       585.92
  200       436.29       586.34
  201      436.741       586.62
  202      437.193        586.2
  203      437.644       585.38
  204      438.095       585.02
  205      438.546       584.64
  206      438.997       583.92
  207      439.448       583.38
  208      439.899       582.98
  209       440.35       582.64
  210      440.801       582.44
  211      441.251       582.74
  212      441.702       583.78
  213      442.152       584.92
  214      442.603       585.58
  215      443.053       586.56
  216      443.503       587.54
  217      443.954       588.18
  218      444.404       588.46
  219      444.854       588.62
  220      445.304       588.58
  221      445.753       588.44
  222      446.203       587.98
  223      446.653       587.28
  224      447.102       586.66
  225      447.552       585.74
  226      448.001       584.98
  227      448.451       584.82
  228        448.9       585.16
  229      449.349       585.64
  230      449.798       586.06
  231      450.247       586.22
  232      450.696       586.26
  233      451.145        586.1
  234      451.594        585.9
  235      452.042       585.98
  236      452.491       586.16
  237      452.939       585.78
  238      453.388       585.02
  239      453.836       584.32
  240      454.285       584.06
  241      454.733       584.08
  242      455.181       584.34
  243      455.629       585.14
  244      456.077       585.82
  245      456.525       585.98
  246      456.972       585.94
  247       457.42       585.58
  248      457.868       585.26
  249      458.315       585.52
  250      458.763       585.72
  251       459.21       585.58
  252      459.657       585.96
  253      460.104       586.16
  254      460.552       585.88
  255      460.999        585.6
  256      461.446       585.42
  257      461.892       584.94
  258      462.339       584.16
  259      462.786       583.88
  260      463.233        584.3
  261      463.679       584.86
  262      464.125       585.58
  263      464.572        586.7
  264      465.018       587.56
  265      465.464       587.98
  266       465.91       588.26
  267      466.356       588.74
  268      466.802       589.26
  269      467.248       589.42
  270      467.694       589.36
  271       468.14       589.14
  272      468.585        588.8
  273      469.031          588
  274      469.476       587.34
  275      469.922       586.82
  276      470.367        586.7
  277      470.812       586.74
  278      471.257       587.44
  279      471.702       588.36
  280      472.147       588.66
  281      472.592       588.08
  282      473.037          587
  283      473.482        585.8
  284      473.926        584.6
  285      474.371       583.96
  286      474.815       584.16
  287      475.259       584.42
  288      475.704       584.64
  289      476.148       585.24
  290      476.592       585.78
  291      477.036       586.04
  292       477.48       586.32
  293      477.924       586.84
  294      478.368       586.74
  295      478.811       586.42
  296      479.255          586
  297      479.698       585.36
  298      480.142        584.3
  299      480.585       583.36
  300      481.028       582.84
  301      481.472       582.54
  302      481.915       582.56
  303      482.358       582.26
  304      482.801       581.92
  305      483.244        582.1
  306      483.686       582.86
  307      484.129       583.78
  308      484.572       585.16
  309      485.014       586.44
  310      485.456       586.76
  311      485.899       586.62
  312      486.341       586.42
  313      486.783       585.98
  314      487.225       585.72
  315      487.667       585.54
  316      488.109       585.32
  317      488.551        585.3
  318      488.993       585.52
  319      489.434       585.44
  320      489.876       585.28
  321      490.318       585.38
  322      490.759        585.6
  323        491.2        585.7
  324      491.641       586.08
  325      492.083       586.82
  326      492.524        587.2
  327      492.965        586.8
  328      493.406       586.14
  329      493.846        585.3
  330      494.287       584.46
  331      494.728       583.64
  332      495.168       583.04
  333      495.609       582.42
  334      496.049       582.32
  335      496.489       582.16
  336       496.93       582.52
  337       497.37       583.72
  338       497.81       585.18
  339       498.25       585.58
  340       498.69       585.52
  341      499.129       585.06
  342      499.569       583.54
  343      500.009       582.18
  344      500.448        582.1
  345      500.888       582.76
  346      501.327       583.32
  347      501.766       584.34
  348      502.206       585.46
  349      502.645       586.08
  350      503.084       586.68
  351      503.523       587.42
  352      503.961       588.02
  353        504.4       588.36
  354      504.839       588.92
  355      505.277       588.98
  356      505.716       588.56
  357      506.154       587.98
  358      506.593       587.36
  359      507.031       586.88
  360      507.469       587.16
  361      507.907       588.04
  362      508.345       588.88
  363      508.783       589.54
  364      509.221        589.1
  365      509.659       588.06
  366      510.096       587.04
  367      510.534       585.92
  368      510.971       584.92
  369      511.409       584.38
  370      511.846       584.04
  371      512.283        583.9
  372       512.72       584.46
  373      513.157        585.5
  374      513.594        586.9
  375      514.031       587.86
  376      514.468       588.52
  377      514.905        589.1
  378      515.341        588.6
  379      515.778        587.3
  380      516.214        586.5
  381       516.65       585.88
  382      517.087       585.22
  383      517.523        585.4
  384      517.959       586.38
  385      518.395       587.44
  386      518.831        588.1
  387      519.267       588.44
  388      519.702       588.54
  389      520.138       588.16
  390      520.574        587.4
  391      521.009       586.66
  392      521.444       586.14
  393       521.88        585.7
  394      522.315       585.32
  395       522.75       585.24
  396      523.185       585.66
  397       523.62       585.94
  398      524.055       586.18
  399       524.49       586.78
  400      524.924       586.94
  401      525.359          586
  402      525.794       584.74
  403      526.228       583.66
  404      526.662       582.98
  405      527.097       582.78
  406      527.531       583.08
  407      527.965       583.68
  408      528.399       584.46
  409      528.833       584.64
  410      529.267        584.6
  411        529.7       584.82
  412      530.134       584.82
  413      530.568        584.3
  414      531.001       583.92
  415      531.434       583.86
  416      531.868       583.84
  417      532.301       584.32
  418      532.734        584.8
  419      533.167       585.02
  420        533.6        585.2
  421      534.033       585.28
  422      534.466          585
  423      534.898       585.24
  424      535.331       585.32
  425      535.763       584.48
  426      536.196       583.84
  427      536.628       583.76
  428       537.06       583.44
  429      537.493        583.3
  430      537.925       583.56
  431      538.357       583.48
  432      538.788       583.16
  433       539.22       582.72
  434      539.652       582.74
  435      540.084       583.52
  436      540.515       584.62
  437      540.947       585.46
  438      541.378       586.18
  439      541.809       586.74
  440       542.24       586.96
  441      542.672       586.58
  442      543.103        586.4
  443      543.533       586.66
  444      543.964       586.54
  445      544.395        586.1
  446      544.826       586.32
  447      545.256       586.16
  448      545.687       585.46
  449      546.117       585.02
  450      546.547       584.56
  451      546.978       584.04
  452      547.408       583.96
  453      547.838       584.32
  454      548.268        585.1
  455      548.698       586.48
  456      549.127       587.82
  457      549.557       588.84
  458      549.987       589.72
  459      550.416       590.42
  460      550.846        590.3
  461      551.275       589.66
  462      551.704       588.76
  463      552.133        587.9
  464      552.562       586.82
  465      552.991        586.4
  466       553.42       586.54
  467      553.849       586.66
  468      554.278       586.72
  469      554.706        586.8
  470      555.135       586.64
  471      555.563       586.42
  472      555.991       586.62
  473       556.42       587.02
  474      556.848       587.44
  475      557.276        587.4
  476      557.704       587.18
  477      558.132        586.8
  478       558.56        586.5
  479      558.987       586.02
  480      559.415       586.18
  481      559.843       586.86
  482       560.27        587.4
  483      560.697       587.72
  484      561.125       588.38
  485      561.552       588.56
  486      561.979        587.7
  487      562.406       586.92
  488      562.833       586.04
  489       563.26       585.08
  490      563.686       584.68
  491      564.113       585.06
  492       564.54       585.36
  493      564.966       585.48
  494      565.392       585.16
  495      565.819        584.5
  496      566.245       584.18
  497      566.671       584.32
  498      567.097       584.68
  499      567.523       585.18
  500      567.949       585.58
  501      568.374        585.6
  502        568.8       585.56
  503      569.226       585.48
  504      569.651       585.82
  505      570.077       586.24
  506      570.502       586.46
  507      570.927        586.7
  508      571.352        586.8
  509      571.777       586.32
  510      572.202       585.48
  511      572.627       584.44
  512      573.052       583.46
  513      573.476       582.92
  514      573.901        582.5
  515      574.325        582.5
  516       574.75       583.24
  517      575.174       584.04
  518      575.598       584.24
  519      576.022       584.88
  520      576.446       585.76
  521       576.87       586.24
  522      577.294       586.42
  523      577.718       586.74
  524      578.142       586.72
  525      578.565       586.62
  526      578.989       586.68
  527      579.412        586.9
  528      579.835       587.32
  529      580.259       587.92
  530      580.682       588.16
  531      581.105       588.08
  532      581.528       587.64
  533      581.951       587.06
  534      582.373        586.4
  535      582.796       586.14
  536      583.219       586.68
  537      583.641       589.04
  538      584.063        593.6
  539      584.486       601.06
  540      584.908          612
  541       585.33       624.62
  542      585.752        635.8
  543      586.174       642.64
  544      586.596       643.14
  545      587.018       637.44
  546      587.439       628.26
  547      587.861       618.56
  548      588.282       610.94
  549      588.704       606.84
  550      589.125        604.9
  551      589.546       603.36
  552      589.967       601.34
  553      590.388       599.06
  554      590.809       596.56
  555       591.23       594.12
  556      591.651       591.62
  557      592.071       589.96
  558      592.492       589.38
  559      592.912        589.7
  560      593.333        591.4
  561      593.753        595.4
  562      594.173       600.74
  563      594.593       606.28
  564      595.013       611.56
  565      595.433       614.86
  566      595.853       615.38
  567      596.273       613.56
  568      596.693       610.62
  569      597.112       607.06
  570      597.532          604
  571      597.951       601.76
  572       598.37        600.1
  573      598.789       598.26
  574      599.208        595.8
  575      599.627       593.58
  576      600.046       591.52
  577      600.465       589.88
  578      600.884        589.3
  579      601.303       589.58
  580      601.721        590.1
  581      602.139       591.46
  582      602.558        593.5
  583      602.976       595.18
  584      603.394       596.62
  585      603.812       597.96
  586       604.23       598.24
  587      604.648       597.54
  588      605.066       596.48
  589      605.484        595.3
  590      605.901       594.64
  591      606.319       595.86
  592      606.736       598.82
  593      607.154        603.5
  594      607.571       609.86
  595      607.988        616.7
  596      608.405       622.46
  597      608.822       627.86
  598      609.239          634
  599      609.656       640.72
  600      610.072       646.04
  601      610.489       648.66
  602      610.905       647.04
  603      611.322        640.5
  604      611.738       630.02
  605      612.154        618.9
  606       612.57       610.94
  607      612.986       608.58
  608      613.402       613.44
  609      613.818       627.12
  610      614.234        646.9
  611       614.65       667.82
  612      615.065        684.4
  613      615.481       691.48
  614      615.896        688.5
  615      616.311        678.5
  616      616.727        664.7
  617      617.142       650.66
  618      617.557       638.98
  619      617.972       628.58
  620      618.386       619.08
  621      618.801       611.18
  622      619.216       604.94
  623       619.63       600.58
  624      620.045       597.82
  625      620.459       596.52
  626      620.873       596.66
  627      621.287       598.28
  628      621.702       601.36
  629      622.116        605.3
  630      622.529       608.22
  631      622.943       608.74
  632      623.357       607.32
  633      623.771       604.56
  634      624.184       601.32
  635      624.597       598.44
  636      625.011        596.7
  637      625.424       597.32
  638      625.837       601.78
  639       626.25       609.88
  640      626.663       620.24
  641      627.076        631.3
  642      627.489       639.54
  643      627.901       641.22
  644      628.314        636.3
  645      628.726       627.82
  646      629.139       618.48
  647      629.551       611.28
  648      629.963       608.32
  649      630.375        609.3
  650      630.787       611.98
  651      631.199       614.02
  652      631.611       614.82
  653      632.023       615.46
  654      632.434       619.14
  655      632.846       628.36
  656      633.257        642.2
  657      633.669        658.2
  658       634.08       672.18
  659      634.491       677.76
  660      634.902       673.12
  661      635.313       661.42
  662      635.724       645.66
  663      636.135       629.46
  664      636.545       617.56
  665      636.956       612.52
  666      637.366       615.76
  667      637.777       626.74
  668      638.187       643.52
  669      638.597       664.84
  670      639.007       690.32
  671      639.417       722.42
  672      639.827       761.94
  673      640.237       804.02
  674      640.647       840.42
  675      641.056       858.68
  676      641.466       849.12
  677      641.875        815.1
  678      642.285        766.8
  679      642.694       714.84
  680      643.103       671.74
  681      643.512       643.28
  682      643.921       625.22
  683       644.33       613.58
  684      644.739       606.22
  685      645.148        601.5
  686      645.556       598.32
  687      645.965       596.44
  688      646.373       595.58
  689      646.781       595.24
  690      647.189       594.88
  691      647.598       594.52
  692      648.006        594.3
  693      648.414       594.62
  694      648.821       596.18
  695      649.229       600.38
  696      649.637          611
  697      650.044       629.94
  698      650.452       654.26
  699      650.859        679.4
  700      651.266       698.96
  701      651.673       705.66
  702       652.08        699.2
  703      652.487       684.86
  704      652.894       667.92
  705      653.301       653.54
  706      653.708       644.72
  707      654.114       638.56
  708      654.521       632.42
  709      654.927       626.36
  710      655.333       622.12
  711       655.74       621.44
  712      656.146       624.96
  713      656.552       630.88
  714      656.958       635.44
  715      657.363       635.94
  716      657.769        631.8
  717      658.175       625.04
  718       658.58       618.66
  719      658.986       616.58
  720      659.391       619.94
  721      659.796       626.34
  722      660.201       632.96
  723      660.606       636.56
  724      661.011       634.62
  725      661.416       628.48
  726      661.821        620.2
  727      662.225       610.98
  728       662.63        602.9
  729      663.034       597.54
  730      663.439       594.02
  731      663.843       591.64
  732      664.247       590.18
  733      664.651          590
  734      665.055       590.56
  735      665.459       591.26
  736      665.863       592.24
  737      666.267       594.76
  738       666.67       601.16
  739      667.074       613.76
  740      667.477       630.62
  741       667.88       648.94
  742      668.283       664.44
  743      668.687       671.58
  744       669.09       667.84
  745      669.492       656.32
  746      669.895       641.08
  747      670.298       627.14
  748      670.701       620.06
  749      671.103       620.72
  750      671.505       626.58
  751      671.908        635.2
  752       672.31       642.18
  753      672.712       642.78
  754      673.114       637.16
  755      673.516        627.6
  756      673.918       616.34
  757       674.32       606.46
  758      674.721        600.4
  759      675.123       596.82
  760      675.524       594.36
  761      675.926        592.6
  762      676.327       591.38
  763      676.728       590.42
  764      677.129       590.12
  765       677.53       590.26
  766      677.931       590.46
  767      678.332        591.2
  768      678.732       591.48
  769      679.133       590.84
  770      679.533        590.4
  771      679.934        589.9
  772      680.334        588.2
  773      680.734       586.54
  774      681.134       585.64
  775      681.534       584.96
  776      681.934       584.78
  777      682.334       585.52
  778      682.733       586.74
  779      683.133       587.44
  780      683.532       587.48
  781      683.932       587.26
  782      684.331        587.1
  783       684.73       586.54
  784      685.129       585.74
  785      685.528       585.68
  786      685.927        586.3
  787      686.326       586.56
  788      686.725       587.16
  789      687.123       588.66
  790      687.522       589.86
  791       687.92       589.64
  792      688.319          589
  793      688.717       588.28
  794      689.115       587.32
  795      689.513       586.34
  796      689.911       586.44
  797      690.309       587.56
  798      690.706       588.78
  799      691.104        590.4
  800      691.501       594.58
  801      691.899        604.4
  802      692.296       619.24
  803      692.693       635.82
  804       693.09        651.4
  805      693.488        661.5
  806      693.884        661.1
  807      694.281       651.46
  808      694.678       637.86
  809      695.075        623.5
  810      695.471       611.18
  811      695.868       602.78
  812      696.264       597.96
  813       696.66       595.18
  814      697.056       593.54
  815      697.452       592.48
  816      697.848       591.64
  817      698.244       590.64
  818       698.64       589.42
  819      699.035       588.44
  820      699.431       588.26
  821      699.826       588.58
  822      700.222       589.02
  823      700.617       589.68
  824      701.012        590.9
  825      701.407        593.5
  826      701.802       600.72
  827      702.197       617.44
  828      702.592       643.62
  829      702.986       673.56
  830      703.381       701.08
  831      703.775        717.7
  832       704.17       716.64
  833      704.564        700.3
  834      704.958        675.5
  835      705.352        648.4
  836      705.746       625.82
  837       706.14       610.72
  838      706.533       600.98
  839      706.927       595.28
  840      707.321       592.54
  841      707.714       591.24
  842      708.107        590.2
  843      708.501       589.28
  844      708.894       588.38
  845      709.287       587.42
  846       709.68       586.68
  847      710.073        586.5
  848      710.465       586.18
  849      710.858       585.76
  850      711.251        585.8
  851      711.643       586.04
  852      712.035       586.16
  853      712.428       586.52
  854       712.82       586.82
  855      713.212       587.02
  856      713.604        587.2
  857      713.995       587.32
  858      714.387       586.94
  859      714.779       586.38
  860       715.17       585.76
  861      715.562        585.3
  862      715.953       585.44
  863      716.344       587.52
  864      716.735        590.9
  865      717.127       594.26
  866      717.517       597.22
  867      717.908       599.74
  868      718.299       600.62
  869       718.69       600.28
  870       719.08          599
  871      719.471       596.72
  872      719.861       593.82
  873      720.251       591.06
  874      720.641       588.36
  875      721.031       586.78
  876      721.421        586.4
  877      721.811       586.36
  878      722.201        586.3
  879       722.59        586.1
  880       722.98       587.02
  881      723.369        591.7
  882      723.759       600.08
  883      724.148        610.6
  884      724.537       621.66
  885      724.926       629.24
  886      725.315       630.22
  887      725.704       625.74
  888      726.092       617.96
  889      726.481       608.94
  890       726.87        601.2
  891      727.258       595.34
  892      727.646       591.26
  893      728.034       588.94
  894      728.423       587.96
  895      728.811       587.88
  896      729.198       588.74
  897      729.586       589.78
  898      729.974       590.18
  899      730.362       589.96
  900      730.749       589.52
  901      731.136       588.82
  902      731.524       588.42
  903      731.911       588.28
  904      732.298       588.14
  905      732.685        588.2
  906      733.072       588.76
  907      733.459          589
  908      733.845       588.62
  909      734.232       588.14
  910      734.618       587.52
  911      735.005       586.32
  912      735.391       585.12
  913      735.777       584.86
  914      736.163       585.46
  915      736.549       586.14
  916      736.935       586.82
  917      737.321       587.82
  918      737.706       588.52
  919      738.092       588.34
  920      738.477       587.74
  921      738.863       587.04
  922      739.248       586.16
  923      739.633       585.26
  924      740.018       584.68
  925      740.403       584.32
  926      740.788       584.22
  927      741.173       584.12
  928      741.557       584.42
  929      741.942       584.88
  930      742.326        585.9
  931      742.711       587.62
  932      743.095          590
  933      743.479       592.74
  934      743.863       595.42
  935      744.247       597.12
  936      744.631       597.48
  937      745.015        596.6
  938      745.398       594.48
  939      745.782       591.96
  940      746.165       589.76
  941      746.548        588.2
  942      746.932       587.26
  943      747.315       586.82
  944      747.698       586.66
  945      748.081       587.12
  946      748.463       588.14
  947      748.846       589.42
  948      749.229       590.54
  949      749.611        591.3
  950      749.993       591.46
  951      750.376       591.32
  952      750.758       590.48
  953       751.14       589.38
  954      751.522       588.44
  955      751.904       587.42
  956      752.285       586.34
  957      752.667       586.04
  958      753.049       586.58
  959       753.43       587.26
  960      753.811       587.82
  961      754.193       588.14
  962      754.574       588.02
  963      754.955        587.2
  964      755.336       586.36
  965      755.717        585.8
  966      756.097       585.16
  967      756.478       584.52
  968      756.858       584.46
  969      757.239       584.88
  970      757.619       585.26
  971      757.999       585.34
  972      758.379       585.42
  973      758.759       585.62
  974      759.139       585.64
  975      759.519        585.6
  976      759.899       586.08
  977      760.278       586.38
  978      760.658       585.94
  979      761.037       585.16
  980      761.417        584.5
  981      761.796       584.22
  982      762.175       584.26
  983      762.554        584.6
  984      762.933       585.54
  985      763.311        586.6
  986       763.69       586.78
  987      764.068       586.46
  988      764.447       586.28
  989      764.825       586.16
  990      765.203       585.96
  991      765.582       585.96
  992       765.96       586.66
  993      766.338        587.2
  994      766.715       586.82
  995      767.093       586.52
  996      767.471       586.88
  997      767.848       587.18
  998      768.226       587.36
  999      768.603       587.62
 1000       768.98       588.12
 1001      769.357       588.56
 1002      769.734        588.7
 1003      770.111       588.88
 1004      770.488       588.68
 1005      770.864       587.58
 1006      771.241       586.36
 1007      771.617       585.54
 1008      771.994        585.2
 1009       772.37       585.96
 1010      772.746        587.3
 1011      773.122       588.48
 1012      773.498       589.62
 1013      773.874       590.18
 1014       774.25       590.46
 1015      774.625       590.46
 1016      775.001       589.78
 1017      775.376       588.78
 1018      775.751       588.14
 1019      776.127       587.82
 1020      776.502       588.34
 1021      776.877       589.44
 1022      777.252       590.16
 1023      777.626       590.46
 1024      778.001       590.18
 1025      778.375       589.36
 1026       778.75        588.9
 1027      779.124       588.92
 1028      779.499        588.9
 1029      779.873       588.96
 1030      780.247       589.02
 1031      780.621       588.82
 1032      780.994       588.26
 1033      781.368       588.02
 1034      781.742       587.92
 1035      782.115       587.96
 1036      782.489       587.74
 1037      782.862          587
 1038      783.235       586.68
 1039      783.608       586.84
 1040      783.981       586.22
 1041      784.354       585.34
 1042      784.727       585.44
 1043        785.1       585.28
 1044      785.472        584.7
 1045      785.845       585.08
 1046      786.217        585.7
 1047      786.589       585.82
 1048      786.961       585.82
 1049      787.333       585.58
 1050      787.705       585.12
 1051      788.077       584.92
 1052      788.449       585.14
 1053       788.82       585.58
 1054      789.192       586.38
 1055      789.563        586.7
 1056      789.934       586.62
 1057      790.306       586.36
 1058      790.677       586.26
 1059      791.048        586.2
 1060      791.419       586.26
 1061      791.789       586.58
 1062       792.16       587.16
 1063       792.53       586.98
 1064      792.901       586.38
 1065      793.271       585.86
 1066      793.641       585.58
 1067      794.012        585.4
 1068      794.382        585.6
 1069      794.751       586.24
 1070      795.121        586.7
 1071      795.491       586.46
 1072      795.861       586.04
 1073       796.23       586.12
 1074      796.599       586.62
 1075      796.969        587.2
 1076      797.338       588.04
 1077      797.707       588.76
 1078      798.076       588.72
 1079      798.445       588.02
 1080      798.813       587.32
 1081      799.182       587.04
 1082       799.55        586.7
 1083      799.919       586.32
 1084      800.287       585.66
 1085      800.655       585.22
 1086      801.023       584.98
 1087      801.391       584.76
 1088      801.759       584.26
 1089      802.127        583.9
 1090      802.495       584.02
 1091      802.862        583.9
 1092       803.23       584.24
 1093      803.597       585.62
 1094      803.964       587.18
 1095      804.331       588.24
 1096      804.698       588.78
 1097      805.065       588.78
 1098      805.432        588.8
 1099      805.799        588.5
 1100      806.165        587.7
 1101      806.532       587.06
 1102      806.898       586.78
 1103      807.264        586.5
 1104      807.631       586.08
 1105      807.997       586.02
 1106      808.363       586.26
 1107      808.728       586.26
 1108      809.094       585.68
 1109       809.46       585.54
 1110      809.825       585.54
 1111      810.191       585.42
 1112      810.556        585.4
 1113      810.921       585.68
 1114      811.286       585.78
 1115      811.651       585.82
 1116      812.016       585.76
 1117      812.381        585.6
 1118      812.745        585.4
 1119       813.11        585.3
 1120      813.474       585.48
 1121      813.839       586.16
 1122      814.203       586.68
 1123      814.567       586.72
 1124      814.931        587.1
 1125      815.295       587.66
 1126      815.659       587.64
 1127      816.022       587.42
 1128      816.386        587.6
 1129      816.749        587.6
 1130      817.113       587.36
 1131      817.476       587.18
 1132      817.839        587.2
 1133      818.202       587.22
 1134      818.565       586.94
 1135      818.928       586.84
 1136      819.291        587.4
 1137      819.653       588.08
 1138      820.016       588.42
 1139      820.378       589.24
 1140       820.74        589.9
 1141      821.102       589.64
 1142      821.464       588.94
 1143      821.826       588.56
 1144      822.188        587.6
 1145       822.55       586.46
 1146      822.912       585.42
 1147      823.273        584.9
 1148      823.634       584.98
 1149      823.996       585.46
 1150      824.357       585.44
 1151      824.718       585.78
 1152      825.079       586.04
 1153       825.44        585.7
 1154      825.801       585.44
 1155      826.161       585.56
 1156      826.522       585.86
 1157      826.882       586.32
 1158      827.242       586.02
 1159      827.603       585.36
 1160      827.963       585.38
 1161      828.323       585.24
 1162      828.682       584.92
 1163      829.042       585.56
 1164      829.402       586.58
 1165      829.761          587
 1166      830.121          587
 1167       830.48       586.62
 1168      830.839       586.18
 1169      831.198       586.14
 1170      831.557       586.52
 1171      831.916       587.18
 1172      832.275       588.12
 1173      832.634       588.76
 1174      832.992        588.6
 1175      833.351       588.04
 1176      833.709        587.5
 1177      834.067       586.74
 1178      834.425       586.26
 1179      834.783       586.54
 1180      835.141        586.9
 1181      835.499       587.38
 1182      835.857        588.2
 1183      836.214       588.94
 1184      836.572       589.26
 1185      836.929       589.66
 1186      837.286       590.12
 1187      837.644        590.7
 1188      838.001       591.08
 1189      838.357       591.14
 1190      838.714       590.94
 1191      839.071       590.42
 1192      839.428       589.58
 1193      839.784       588.62
 1194       840.14       587.44
 1195      840.497       586.26
 1196      840.853       585.18
 1197      841.209       584.44
 1198      841.565       584.16
 1199       841.92       584.54
 1200      842.276        585.2
 1201      842.632        585.9
 1202      842.987        586.5
 1203      843.343       586.96
 1204      843.698       587.24
 1205      844.053       587.22
 1206      844.408       587.14
 1207      844.763       586.88
 1208      845.118       586.38
 1209      845.472        585.8
 1210      845.827       585.42
 1211      846.181       584.96
 1212      846.536       584.54
 1213       846.89       584.12
 1214      847.244       583.86
 1215      847.598       583.98
 1216      847.952        584.3
 1217      848.306       584.82
 1218       848.66       585.66
 1219      849.013       586.38
 1220      849.367       587.22
 1221       849.72        588.1
 1222      850.073       588.36
 1223      850.427       588.18
 1224       850.78       587.74
 1225      851.133       587.02
 1226      851.485       586.88
 1227      851.838        587.4
 1228      852.191       587.72
 1229      852.543       587.92
 1230      852.896       588.18
 1231      853.248       587.96
 1232        853.6       587.56
 1233      853.952        587.4
 1234      854.304       587.42
 1235      854.656          587
 1236      855.007       586.62
 1237      855.359        586.8
 1238       855.71       587.74
 1239      856.062       588.82
 1240      856.413        589.6
 1241      856.764       589.64
 1242      857.115       588.96
 1243      857.466       587.56
 1244      857.817       585.84
 1245      858.168        584.5
 1246      858.518       583.94
 1247      858.869          584
 1248      859.219       584.72
 1249      859.569       586.18
 1250       859.92       587.74
 1251       860.27       588.88
 1252      860.619        589.4
 1253      860.969       589.34
 1254      861.319       588.84
 1255      861.669       588.26
 1256      862.018        587.7
 1257      862.367       587.52
 1258      862.717       587.06
 1259      863.066       586.78
 1260      863.415       586.96
 1261      863.764        587.3
 1262      864.112        587.4
 1263      864.461       587.54
 1264       864.81       587.26
 1265      865.158        586.7
 1266      865.507       586.54
 1267      865.855       586.08
 1268      866.203       585.72
 1269      866.551       585.82
 1270      866.899       586.08
 1271      867.247        586.1
 1272      867.594       586.48
 1273      867.942       587.06
 1274      868.289       587.68
 1275      868.637       588.22
 1276      868.984       588.36
 1277      869.331       587.98
 1278      869.678       587.44
 1279      870.025       586.54
 1280      870.372        585.5
 1281      870.718       585.16
 1282      871.065       585.56
 1283      871.411       586.06
 1284      871.758       586.88
 1285      872.104       587.44
 1286       872.45        587.1
 1287      872.796       586.18
 1288      873.142        585.5
 1289      873.488       585.32
 1290      873.833        585.6
 1291      874.179        586.1
 1292      874.524       587.06
 1293      874.869       587.94
 1294      875.215       587.54
 1295       875.56       586.92
 1296      875.905       586.68
 1297       876.25       586.28
 1298      876.594       585.94
 1299      876.939       585.96
 1300      877.283       585.82
 1301      877.628       585.58
 1302      877.972       585.46
 1303      878.316       585.44
 1304       878.66        585.4
 1305      879.004        585.5
 1306      879.348       585.96
 1307      879.692       586.54
 1308      880.035        586.8
 1309      880.379       587.24
 1310      880.722       587.64
 1311      881.066       587.44
 1312      881.409       586.84
 1313      881.752       586.36
 1314      882.095       586.06
 1315      882.438       585.84
 1316       882.78       585.86
 1317      883.123       585.86
 1318      883.465       585.62
 1319      883.808       585.78
 1320       884.15       586.42
 1321      884.492        586.7
 1322      884.834       587.04
 1323      885.176       587.58
 1324      885.518       587.68
 1325      885.859       587.32
 1326      886.201       586.72
 1327      886.542        585.9
 1328      886.884        584.6
 1329      887.225       583.12
 1330      887.566        582.1
 1331      887.907       582.12
 1332      888.248       582.26
 1333      888.589        582.8
 1334      888.929       583.52
 1335       889.27       583.94
 1336       889.61        584.3
 1337      889.951          585
 1338      890.291        585.6
 1339      890.631       586.18
 1340      890.971       586.32
 1341      891.311       586.02
 1342       891.65       585.96
 1343       891.99       585.68
 1344      892.329        584.8
 1345      892.669       584.44
 1346      893.008       584.34
 1347      893.347       584.16
 1348      893.686       584.84
 1349      894.025       585.82
 1350      894.364        586.2
 1351      894.703       586.38
 1352      895.041       585.98
 1353       895.38       585.26
 1354      895.718       585.18
 1355      896.056       585.08
 1356      896.395        584.9
 1357      896.733       585.22
 1358      897.071       585.22
 1359      897.408       585.04
 1360      897.746       585.52
 1361      898.084       585.94
 1362      898.421       586.12
 1363      898.758        586.3
 1364      899.095       586.14
 1365      899.433        585.9
 1366       899.77       586.26
 1367      900.106       586.62
 1368      900.443       587.18
 1369       900.78       587.66
 1370      901.116       587.88
 1371      901.453       587.38
 1372      901.789        586.7
 1373      902.125       586.14
 1374      902.461       585.74
 1375      902.797       584.94
 1376      903.133       583.94
 1377      903.469       583.52
 1378      903.804       583.46
 1379       904.14       583.72
 1380      904.475       584.08
 1381       904.81       585.26
 1382      905.146       586.04
 1383      905.481       586.02
 1384      905.815       585.62
 1385       906.15       585.66
 1386      906.485       585.36
 1387      906.819       585.18
 1388      907.154       584.98
 1389      907.488       584.88
 1390      907.822       585.18
 1391      908.156       585.78
 1392       908.49        586.1
 1393      908.824       586.32
 1394      909.158       586.18
 1395      909.492       585.46
 1396      909.825       584.24
 1397      910.159       583.38
 1398      910.492       583.36
 1399      910.825       584.16
 1400      911.158       585.22
 1401      911.491       586.66
 1402      911.824       588.38
 1403      912.157        589.4
 1404      912.489       589.52
 1405      912.822        589.7
 1406      913.154       589.54
 1407      913.486       588.52
 1408      913.818       587.38
 1409       914.15       586.64
 1410      914.482       585.54
 1411      914.814       584.24
 1412      915.146       583.44
 1413      915.477       583.16
 1414      915.809       583.16
 1415       916.14       583.56
 1416      916.471       584.18
 1417      916.802       584.62
 1418      917.133        584.8
 1419      917.464       584.88
 1420      917.795       584.42
 1421      918.125       583.74
 1422      918.456       583.68
 1423      918.786       584.12
 1424      919.116       584.74
 1425      919.446        585.9
 1426      919.776        587.5
 1427      920.106        588.2
 1428      920.436       587.96
 1429      920.766       587.28
 1430      921.095       586.14
 1431      921.425       584.78
 1432      921.754       584.44
 1433      922.083       585.02
 1434      922.412       585.66
 1435      922.741        586.1
 1436       923.07       586.04
 1437      923.399       585.36
 1438      923.727       584.78
 1439      924.056       584.72
 1440      924.384       585.14
 1441      924.713       585.82
 1442      925.041       586.52
 1443      925.369       586.38
 1444      925.697       585.76
 1445      926.024       585.06
 1446      926.352       584.66
 1447       926.68       584.36
 1448      927.007       584.86
 1449      927.334        585.5
 1450      927.662       585.88
 1451      927.989       586.34
 1452      928.316       586.94
 1453      928.643        586.9
 1454      928.969        586.4
 1455      929.296       585.84
 1456      929.622       585.22
 1457      929.949       584.58
 1458      930.275       584.24
 1459      930.601        584.9
 1460      930.927        586.1
 1461      931.253       586.64
 1462      931.579       586.68
 1463      931.905       586.88
 1464       932.23       586.74
 1465      932.556       586.62
 1466      932.881       586.48
 1467      933.206       586.34
 1468      933.531       586.14
 1469      933.856       585.52
 1470      934.181       584.42
 1471      934.506       583.88
 1472       934.83       583.76
 1473      935.155       583.64
 1474      935.479       583.96
 1475      935.803       584.86
 1476      936.128       586.04
 1477      936.452       586.84
 1478      936.775       587.02
 1479      937.099       587.06
 1480      937.423        586.6
 1481      937.746       585.68
 1482       938.07        585.2
 1483      938.393       585.54
 1484      938.716        585.7
 1485      939.039       585.82
 1486      939.362       586.68
 1487      939.685       587.66
 1488      940.008       588.02
 1489      940.331       588.42
 1490      940.653       588.48
 1491      940.975       587.68
 1492      941.298       586.62
 1493       941.62       585.86
 1494      941.942       585.14
 1495      942.264       585.02
 1496      942.585       585.24
 1497      942.907        585.2
 1498      943.229       584.82
 1499       943.55       584.24
 1500      943.871       583.76
 1501      944.192        583.6
 1502      944.513       583.82
 1503      944.834        584.4
 1504      945.155       584.98
 1505      945.476       585.22
 1506      945.796       585.14
 1507      946.117       584.84
 1508      946.437        584.5
 1509      946.757       584.46
 1510      947.078        584.3
 1511      947.398       584.44
 1512      947.717       585.04
 1513      948.037       585.44
 1514      948.357        585.9
 1515      948.676       586.58
 1516      948.996        586.6
 1517      949.315       586.08
 1518      949.634        586.3
 1519      949.953       586.76
 1520      950.272       586.72
 1521      950.591       586.58
 1522      950.909       586.72
 1523      951.228       586.52
 1524      951.546       585.84
 1525      951.865       585.72
 1526      952.183       585.96
 1527      952.501        585.8
 1528      952.819        585.6
 1529      953.137       585.54
 1530      953.454       585.34
 1531      953.772       585.62
 1532      954.089        586.1
 1533      954.407       586.32
 1534      954.724       586.62
 1535      955.041       586.96
 1536      955.358        586.8
 1537      955.675        586.8
 1538      955.992        586.6
 1539      956.308        585.8
 1540      956.625       585.02
 1541      956.941       584.74
 1542      957.257       584.74
 1543      957.574          585
 1544       957.89       585.62
 1545      958.206       586.26
 1546      958.521       586.82
 1547      958.837          587
 1548      959.152       586.98
 1549      959.468       586.76
 1550      959.783       586.54
 1551      960.098       586.04
 1552      960.413       585.68
 1553      960.728       585.68
 1554      961.043       585.74
 1555      961.358       585.64
 1556      961.672       585.88
 1557      961.987       585.84
 1558      962.301       585.54
 1559      962.615       585.84
 1560       962.93       586.44
 1561      963.244       586.88
 1562      963.557       587.24
 1563      963.871        587.3
 1564      964.185       586.86
 1565      964.498       586.12
 1566      964.812       585.62
 1567      965.125       585.62
 1568      965.438       586.06
 1569      965.751        586.5
 1570      966.064       586.82
 1571      966.377        586.9
 1572      966.689       586.78
 1573      967.002        586.4
 1574      967.314        585.7
 1575      967.626       585.44
 1576      967.939       585.28
 1577      968.251        584.8
 1578      968.563       584.38
 1579      968.874        584.3
 1580      969.186       584.28
 1581      969.498       584.46
 1582      969.809        584.8
 1583       970.12       585.36
 1584      970.431       586.34
 1585      970.743        587.1
 1586      971.053       587.22
 1587      971.364       587.08
 1588      971.675       586.84
 1589      971.986       586.46
 1590      972.296       586.32
 1591      972.606       586.24
 1592      972.917       586.66
 1593      973.227       586.82
 1594      973.537       586.46
 1595      973.847       586.08
 1596      974.156       585.82
 1597      974.466       585.58
 1598      974.775       585.38
 1599      975.085       585.56
 1600      975.394       585.62
 1601      975.703       585.58
 1602      976.012        585.2
 1603      976.321          585
 1604       976.63       584.72
 1605      976.938       584.26
 1606      977.247       584.26
 1607      977.555       584.66
 1608      977.863       585.08
 1609      978.172       585.76
 1610       978.48       586.36
 1611      978.787       586.62
 1612      979.095        586.8
 1613      979.403       586.88
 1614       979.71       586.58
 1615      980.018       586.44
 1616      980.325        586.3
 1617      980.632       585.94
 1618      980.939       585.62
 1619      981.246       585.72
 1620      981.553       586.08
 1621       981.86       586.32
 1622      982.166       586.78
 1623      982.473       587.36
 1624      982.779        587.6
 1625      983.085       587.62
 1626      983.391       587.78
 1627      983.697       587.58
 1628      984.003       587.22
 1629      984.309          587
 1630      984.614       586.74
 1631       984.92       586.24
 1632      985.225        586.1
 1633       985.53        586.2
 1634      985.835       586.16
 1635       986.14       586.34
 1636      986.445       587.12
 1637       986.75       587.36
 1638      987.054       586.94
 1639      987.359       586.78
 1640      987.663       586.42
 1641      987.967       585.66
 1642      988.271       585.58
 1643      988.575        586.2
 1644      988.879       586.64
 1645      989.183       586.98
 1646      989.487       587.44
 1647       989.79       587.56
 1648      990.093       587.26
 1649      990.397       586.92
 1650        990.7          587
 1651      991.003       586.64
 1652      991.306       585.94
 1653      991.608       585.68
 1654      991.911       585.74
 1655      992.213       585.72
 1656      992.516       586.04
 1657      992.818        586.6
 1658       993.12       586.62
 1659      993.422       586.28
 1660      993.724       586.06
 1661      994.026       585.76
 1662      994.327       585.46
 1663      994.629        585.6
 1664       994.93       585.64
 1665      995.232       585.16
 1666      995.533       584.86
 1667      995.834       584.88
 1668      996.135       584.92
 1669      996.435       585.02
 1670      996.736       585.16
 1671      997.036        585.4
 1672      997.337       585.28
 1673      997.637        585.1
 1674      997.937       585.14
 1675      998.237       585.34
 1676      998.537       585.44
 1677      998.837        585.7
 1678      999.137       586.18
 1679      999.436       586.56
 1680      999.735        586.6
 1681      1000.03        586.3
 1682      1000.33        586.1
 1683      1000.63       586.16
 1684      1000.93       586.52
 1685      1001.23        587.1
 1686      1001.53       587.66
 1687      1001.83       588.22
 1688      1002.13       588.26
 1689      1002.42       587.58
 1690      1002.72        587.2
 1691      1003.02       587.34
 1692      1003.32       587.44
 1693      1003.62       587.46
 1694      1003.91       587.94
 1695      1004.21       588.16
 1696      1004.51       587.76
 1697      1004.81        587.4
 1698       1005.1       587.22
 1699       1005.4        586.8
 1700       1005.7        586.4
 1701      1005.99       586.58
 1702      1006.29       587.02
 1703      1006.59       587.58
 1704      1006.88       588.16
 1705      1007.18        588.6
 1706      1007.48       588.68
 1707      1007.77       588.12
 1708      1008.07       587.24
 1709      1008.36       586.38
 1710      1008.66       585.82
 1711      1008.95        585.4
 1712      1009.25       585.42
 1713      1009.55       585.98
 1714      1009.84       586.94
 1715      1010.14       587.24
 1716      1010.43          587
 1717      1010.73       586.86
 1718      1011.02        586.7
 1719      1011.31       585.86
 1720      1011.61       585.32
 1721       1011.9        585.7
 1722       1012.2       585.92
 1723      1012.49       585.74
 1724      1012.79       585.94
 1725      1013.08       586.14
 1726      1013.37       586.18
 1727      1013.67       586.06
 1728      1013.96       585.56
 1729      1014.25       585.16
 1730      1014.55          585
 1731      1014.84       584.66
 1732      1015.13       584.44
 1733      1015.42       584.76
 1734      1015.72        585.1
 1735      1016.01        585.5
 1736       1016.3       586.06
 1737      1016.59       586.42
 1738      1016.89        586.4
 1739      1017.18       586.04
 1740      1017.47       585.76
 1741      1017.76        585.5
 1742      1018.05       585.28
 1743      1018.35       585.08
 1744      1018.64       585.08
 1745      1018.93       585.06
 1746      1019.22       584.92
 1747      1019.51          585
 1748       1019.8        585.3
 1749      1020.09        585.6
 1750      1020.38       585.46
 1751      1020.67       584.96
 1752      1020.96       584.76
 1753      1021.25       584.66
 1754      1021.54       584.42
 1755      1021.83       584.56
 1756      1022.12       585.06
 1757      1022.41       585.32
 1758       1022.7       585.42
 1759      1022.99       585.38
 1760      1023.28       585.36
 1761      1023.57        585.3
 1762      1023.86       584.84
 1763      1024.15        584.1
 1764      1024.44        583.8
 1765      1024.73       583.54
 1766      1025.02        582.8
 1767       1025.3       582.38
 1768      1025.59       583.02
 1769      1025.88       583.76
 1770      1026.17        584.2
 1771      1026.46       585.38
 1772      1026.74       586.38
 1773      1027.03        586.6
 1774      1027.32       586.44
 1775      1027.61       586.64
 1776      1027.89       586.58
 1777      1028.18        586.6
 1778      1028.47       586.84
 1779      1028.76       586.86
 1780      1029.04        586.4
 1781      1029.33       586.04
 1782      1029.62       586.16
 1783       1029.9       586.06
 1784      1030.19       586.18
 1785      1030.47        586.7
 1786      1030.76       587.08
 1787      1031.05       586.66
 1788      1031.33       586.44
 1789      1031.62       586.28
 1790       1031.9        585.8
 1791      1032.19        585.6
 1792      1032.47       585.74
 1793      1032.76       585.46
 1794      1033.04       584.76
 1795      1033.33       584.42
 1796      1033.61       584.06
 1797       1033.9       583.22
 1798      1034.18       582.36
 1799      1034.47       582.36
 1800      1034.75       582.54
 1801      1035.04       582.58
 1802      1035.32       583.54
 1803       1035.6       584.86
 1804      1035.89       585.86
 1805      1036.17        586.6
 1806      1036.45       587.14
 1807      1036.74       587.36
 1808      1037.02        587.1
 1809       1037.3       586.26
 1810      1037.59        585.4
 1811      1037.87       584.58
 1812      1038.15       583.32
 1813      1038.44       582.64
 1814      1038.72        582.5
 1815         1039        582.7
 1816      1039.28       583.28
 1817      1039.56       583.88
 1818      1039.85       584.58
 1819      1040.13       585.44
 1820      1040.41       586.14
 1821      1040.69       586.38
 1822      1040.97       586.74
 1823      1041.25       586.66
 1824      1041.54        586.1
 1825      1041.82       585.08
 1826       1042.1       584.26
 1827      1042.38       583.82
 1828      1042.66       583.32
 1829      1042.94       583.06
 1830      1043.22       583.42
 1831       1043.5       583.96
 1832      1043.78       584.24
 1833      1044.06        584.5
 1834      1044.34        584.9
 1835      1044.62        585.2
 1836       1044.9       585.34
 1837      1045.18       585.36
 1838      1045.46       585.54
 1839      1045.74       585.98
 1840      1046.02        586.3
 1841       1046.3        586.6
 1842      1046.58       587.08
 1843      1046.85        587.6
 1844      1047.13        587.6
 1845      1047.41        587.1
 1846      1047.69       586.22
 1847      1047.97       585.22
 1848      1048.25       584.06
 1849      1048.52       583.44
 1850       1048.8       583.96
 1851      1049.08       585.06
 1852      1049.36       585.74
 1853      1049.63       586.46
 1854      1049.91       587.14
 1855      1050.19       586.66
 1856      1050.47       585.36
 1857      1050.74       584.38
 1858      1051.02       583.74
 1859       1051.3       583.48
 1860      1051.57       583.78
 1861      1051.85       584.32
 1862      1052.13        585.1
 1863       1052.4       585.92
 1864      1052.68       586.28
 1865      1052.95        586.7
 1866      1053.23       587.74
 1867      1053.51       588.54
 1868      1053.78        588.8
 1869      1054.06       589.12
 1870      1054.33       589.06
 1871      1054.61       587.66
 1872      1054.88       585.86
 1873      1055.16       584.34
 1874      1055.43        582.7
 1875      1055.71       581.48
 1876      1055.98       582.02
 1877      1056.25       583.84
 1878      1056.53       585.88
 1879       1056.8        587.5
 1880      1057.08       588.38
 1881      1057.35       587.98
 1882      1057.62       586.42
 1883       1057.9       584.56
 1884      1058.17        583.2
 1885      1058.45       582.74
 1886      1058.72        583.2
 1887      1058.99       584.12
 1888      1059.26       585.32
 1889      1059.54       586.14
 1890      1059.81       586.46
 1891      1060.08       586.44
 1892      1060.35       585.92
 1893      1060.63        585.1
 1894       1060.9       584.48
 1895      1061.17       583.52
 1896      1061.44       582.54
 1897      1061.71       582.42
 1898      1061.99       582.74
 1899      1062.26       583.08
 1900      1062.53       583.78
 1901       1062.8        584.2
 1902      1063.07        584.2
 1903      1063.34       584.08
 1904      1063.61          584
 1905      1063.88       584.12
 1906      1064.15       584.82
 1907      1064.42       585.58
 1908       1064.7       586.08
 1909      1064.97       586.42
 1910      1065.24       586.44
 1911      1065.51       585.92
 1912      1065.78       585.08
 1913      1066.04       584.58
 1914      1066.31       584.68
 1915      1066.58       584.94
 1916      1066.85        585.2
 1917      1067.12       585.52
 1918      1067.39       585.38
 1919      1067.66       584.66
 1920      1067.93       584.02
 1921       1068.2        583.7
 1922      1068.47       583.28
 1923      1068.73        582.7
 1924         1069       582.16
 1925      1069.27       581.72
 1926      1069.54       581.32
 1927      1069.81       581.64
 1928      1070.07       582.66
 1929      1070.34       583.54
 1930      1070.61       583.86
 1931      1070.88        584.3
 1932      1071.14       584.82
 1933      1071.41       584.88
 1934      1071.68       584.84
 1935      1071.94       585.16
 1936      1072.21       585.32
 1937      1072.48       585.06
 1938      1072.74       584.66
 1939      1073.01       584.42
 1940      1073.28       584.36
 1941      1073.54       584.28
 1942      1073.81       584.18
 1943      1074.07       584.34
 1944      1074.34       584.74
 1945       1074.6       584.88
 1946      1074.87       584.82
 1947      1075.13       584.94
 1948       1075.4       585.52
 1949      1075.66       586.32
 1950      1075.93          587
 1951      1076.19       587.48
 1952      1076.46        587.9
 1953      1076.72       587.58
 1954      1076.99       586.58
 1955      1077.25        585.8
 1956      1077.52        585.4
 1957      1077.78        584.6
 1958      1078.04       583.86
 1959      1078.31       583.12
 1960      1078.57        582.2
 1961      1078.83       581.54
 1962       1079.1        581.7
 1963      1079.36       582.26
 1964      1079.62        583.3
 1965      1079.89        584.6
 1966      1080.15       585.64
 1967      1080.41       586.38
 1968      1080.67       587.16
 1969      1080.94       587.48
 1970       1081.2       587.34
 1971      1081.46       587.04
 1972      1081.72        586.2
 1973      1081.98       585.48
 1974      1082.24       585.62
 1975      1082.51       586.14
 1976      1082.77       586.78
 1977      1083.03       587.42
 1978      1083.29       587.56
 1979      1083.55       587.14
 1980      1083.81       586.28
 1981      1084.07        585.5
 1982      1084.33       585.28
 1983      1084.59       585.16
 1984      1084.85       584.88
 1985      1085.11       584.82
 1986      1085.37       584.86
 1987      1085.63       584.56
 1988      1085.89        584.2
 1989      1086.15        583.8
 1990      1086.41       583.64
 1991      1086.67       583.66
 1992      1086.93        583.6
 1993      1087.19       583.68
 1994      1087.45       584.06
 1995      1087.71       584.82
 1996      1087.97       585.34
 1997      1088.23       585.82
 1998      1088.48       586.32
 1999      1088.74       586.58
 2000         1089       586.34
 2001      1089.26       586.14
 2002      1089.52       586.48
 2003      1089.77       586.84
 2004      1090.03       586.88
 2005      1090.29       587.02
 2006      1090.55       587.32
 2007       1090.8       587.22
 2008      1091.06       586.82
 2009      1091.32          587
 2010      1091.57       587.36
 2011      1091.83        587.1
 2012      1092.09       586.82
 2013      1092.34       587.08
 2014       1092.6       587.38
 2015      1092.86          587
 2016      1093.11        586.7
 2017      1093.37        586.8
 2018      1093.62       586.84
 2019      1093.88       586.94
 2020      1094.13       587.68
 2021      1094.39       588.76
 2022      1094.65       589.32
 2023       1094.9        589.2
 2024      1095.16       588.48
 2025      1095.41       587.72
 2026      1095.66       586.84
 2027      1095.92       585.96
 2028      1096.17       585.34
 2029      1096.43       584.94
 2030      1096.68       584.42
 2031      1096.94       584.16
 2032      1097.19       584.36
 2033      1097.44       584.64
 2034       1097.7        584.9
 2035      1097.95       585.18
 2036       1098.2       585.26
 2037      1098.46       584.88
 2038      1098.71       584.64
 2039      1098.96       584.54
 2040      1099.22        584.7
 2041      1099.47       584.94
 2042      1099.72        585.3
 2043      1099.97          586
 2044      1100.23        586.8
 2045      1100.48       587.96
 2046      1100.73      588.325
 2047      1100.98      589.133
