scansci Spectrometer Data File
--- Measurement Setting ---
Type: Sample Spectrum
Date: Mon Oct 16 17:39:19 2023
User: (Reserved by scansci)
Serial: (Reserved by scansci)
Channel: No. 11
Integration Time: 1
Average: 10
Boxcar: 2
Electrical Dark: No-corrected
Time Normalize: (Reserved by scansci)
Dual-beam: (Reserved by scansci)
Reference Ch: (Reserved by scansci)
--- Measurement Data ---
Pixel   Wavelength   Intensity
    0        162.5      662.533
    1      162.985      662.225
    2      163.469        661.9
    3      163.954          662
    4      164.439        662.2
    5      164.923        661.7
    6      165.408       661.28
    7      165.892       661.06
    8      166.377       660.46
    9      166.861       659.74
   10      167.345       659.84
   11       167.83       660.64
   12      168.314       661.28
   13      168.798       661.44
   14      169.282        661.5
   15      169.766       660.74
   16       170.25        659.4
   17      170.734       658.22
   18      171.218       657.56
   19      171.702       657.42
   20      172.185       658.06
   21      172.669       659.14
   22      173.153       660.44
   23      173.636       661.42
   24       174.12       662.46
   25      174.603       663.34
   26      175.087       663.52
   27       175.57       663.36
   28      176.053        663.4
   29      176.537       662.94
   30       177.02       662.28
   31      177.503       662.18
   32      177.986       662.14
   33      178.469       661.98
   34      178.952       661.78
   35      179.435       661.18
   36      179.918       660.78
   37      180.401       660.64
   38      180.884       660.34
   39      181.366       660.66
   40      181.849       662.02
   41      182.332       663.06
   42      182.814       663.74
   43      183.297       664.48
   44      183.779       664.44
   45      184.262        663.4
   46      184.744       662.02
   47      185.226       660.68
   48      185.708       659.56
   49      186.191       658.88
   50      186.673       658.64
   51      187.155       658.88
   52      187.637       659.32
   53      188.119        659.6
   54        188.6       660.06
   55      189.082       660.38
   56      189.564       660.62
   57      190.046       660.88
   58      190.527       661.16
   59      191.009       661.44
   60      191.491       661.82
   61      191.972       661.88
   62      192.454       661.76
   63      192.935        661.5
   64      193.416       661.08
   65      193.897       661.06
   66      194.379       661.66
   67       194.86       661.98
   68      195.341       662.36
   69      195.822       662.36
   70      196.303       661.72
   71      196.784       660.72
   72      197.265       660.32
   73      197.746       660.44
   74      198.226       660.62
   75      198.707       660.94
   76      199.188       661.32
   77      199.668       661.48
   78      200.149       661.02
   79      200.629       660.54
   80       201.11       660.32
   81       201.59       660.24
   82       202.07        660.2
   83       202.55       660.24
   84      203.031        660.6
   85      203.511       660.94
   86      203.991       661.06
   87      204.471       660.76
   88      204.951       660.42
   89      205.431       660.72
   90       205.91       661.54
   91       206.39       662.36
   92       206.87        663.2
   93      207.349          664
   94      207.829       664.18
   95      208.309        663.9
   96      208.788       663.78
   97      209.267       663.96
   98      209.747       663.86
   99      210.226       663.32
  100      210.705       662.66
  101      211.185       661.96
  102      211.664       661.28
  103      212.143       661.26
  104      212.622       661.36
  105      213.101       661.16
  106      213.579        661.2
  107      214.058        661.7
  108      214.537        662.8
  109      215.016       664.44
  110      215.494       665.98
  111      215.973        666.9
  112      216.452       667.32
  113       216.93       666.92
  114      217.408       665.84
  115      217.887        664.9
  116      218.365       663.84
  117      218.843       662.34
  118      219.321       660.84
  119      219.799       659.88
  120      220.278       659.42
  121      220.755        659.7
  122      221.233       660.66
  123      221.711       661.72
  124      222.189       662.54
  125      222.667        663.1
  126      223.144       663.54
  127      223.622       663.86
  128        224.1       664.44
  129      224.577       665.52
  130      225.055       666.26
  131      225.532       666.22
  132      226.009        665.8
  133      226.486        664.9
  134      226.964       663.26
  135      227.441       661.92
  136      227.918        660.8
  137      228.395        660.1
  138      228.872       659.82
  139      229.349       659.86
  140      229.826       659.98
  141      230.302       660.54
  142      230.779       661.34
  143      231.256       661.78
  144      231.732       661.64
  145      232.209       661.04
  146      232.685       660.22
  147      233.162       659.36
  148      233.638       658.68
  149      234.114       658.56
  150       234.59        659.5
  151      235.066        660.8
  152      235.543       661.54
  153      236.019       662.68
  154      236.495       664.02
  155       236.97       665.04
  156      237.446          665
  157      237.922       664.74
  158      238.398       664.66
  159      238.873       664.38
  160      239.349       663.76
  161      239.824        663.8
  162        240.3       664.26
  163      240.775        664.2
  164      241.251       664.14
  165      241.726        664.1
  166      242.201       664.16
  167      242.676       664.46
  168      243.151       664.46
  169      243.626        664.2
  170      244.101       664.18
  171      244.576       664.16
  172      245.051       663.72
  173      245.526       663.58
  174          246       663.66
  175      246.475       663.48
  176       246.95       663.78
  177      247.424        664.1
  178      247.899          664
  179      248.373       663.74
  180      248.847       663.54
  181      249.321       662.84
  182      249.796       662.32
  183       250.27       662.38
  184      250.744       662.96
  185      251.218       663.18
  186      251.692       662.76
  187      252.166       662.18
  188      252.639        661.8
  189      253.113       661.22
  190      253.587       660.92
  191       254.06       661.52
  192      254.534       662.44
  193      255.007       662.88
  194      255.481       662.84
  195      255.954       662.48
  196      256.427       661.92
  197      256.901       661.38
  198      257.374       661.04
  199      257.847       661.04
  200       258.32       661.68
  201      258.793       662.52
  202      259.266       663.14
  203      259.739       663.72
  204      260.211       664.18
  205      260.684        664.3
  206      261.157       664.36
  207      261.629       664.36
  208      262.102       664.04
  209      262.574       663.52
  210      263.046        662.8
  211      263.519       662.28
  212      263.991       662.06
  213      264.463       662.06
  214      264.935        662.1
  215      265.407       661.98
  216      265.879       661.26
  217      266.351       660.18
  218      266.823       659.08
  219      267.295       659.02
  220      267.766        660.1
  221      268.238       661.44
  222       268.71        662.9
  223      269.181        664.1
  224      269.653       664.14
  225      270.124       663.72
  226      270.595        663.3
  227      271.066       662.68
  228      271.538        662.2
  229      272.009        661.6
  230       272.48       660.58
  231      272.951       659.66
  232      273.422        658.9
  233      273.892       658.06
  234      274.363       657.64
  235      274.834        657.7
  236      275.305       657.92
  237      275.775       658.76
  238      276.246       660.32
  239      276.716       661.48
  240      277.186       661.58
  241      277.657       660.86
  242      278.127       659.74
  243      278.597       658.68
  244      279.067       657.94
  245      279.537       657.96
  246      280.007       659.06
  247      280.477       660.16
  248      280.947       660.74
  249      281.417       661.84
  250      281.886       663.14
  251      282.356        663.4
  252      282.825        663.5
  253      283.295       663.52
  254      283.764       662.88
  255      284.234       661.68
  256      284.703       660.94
  257      285.172       660.42
  258      285.641       659.86
  259       286.11        659.8
  260      286.579       660.28
  261      287.048       661.04
  262      287.517       661.74
  263      287.986        662.6
  264      288.454       663.32
  265      288.923       663.74
  266      289.392       663.78
  267       289.86        663.5
  268      290.329       662.74
  269      290.797       661.84
  270      291.265       661.28
  271      291.734       661.12
  272      292.202       661.22
  273       292.67        661.7
  274      293.138        661.7
  275      293.606        661.5
  276      294.074       661.28
  277      294.541       660.52
  278      295.009       659.94
  279      295.477          660
  280      295.944       660.14
  281      296.412        660.6
  282      296.879       661.72
  283      297.347       662.64
  284      297.814       663.86
  285      298.281       664.86
  286      298.749       664.94
  287      299.216       664.64
  288      299.683       664.22
  289       300.15       662.94
  290      300.616       661.58
  291      301.083        661.2
  292       301.55       661.58
  293      302.017       661.82
  294      302.483        661.8
  295       302.95       662.04
  296      303.416       661.48
  297      303.883       660.06
  298      304.349       659.28
  299      304.815        659.8
  300      305.281        660.2
  301      305.748       660.94
  302      306.214       662.02
  303       306.68       662.74
  304      307.146       662.82
  305      307.611       663.26
  306      308.077       663.96
  307      308.543       664.48
  308      309.008       664.72
  309      309.474        664.5
  310      309.939        663.9
  311      310.405        663.1
  312       310.87        662.6
  313      311.335       662.42
  314        311.8        662.5
  315      312.266       662.32
  316      312.731       661.76
  317      313.196       661.14
  318       313.66       660.44
  319      314.125       659.92
  320       314.59       659.72
  321      315.055       659.72
  322      315.519        660.1
  323      315.984       660.38
  324      316.448       660.64
  325      316.913       660.88
  326      317.377       661.02
  327      317.841       660.48
  328      318.305       660.58
  329      318.769       661.16
  330      319.233       661.72
  331      319.697       662.34
  332      320.161       662.54
  333      320.625       661.76
  334      321.089       659.94
  335      321.552       658.44
  336      322.016       657.78
  337      322.479       657.84
  338      322.943       658.58
  339      323.406       660.18
  340      323.869       661.08
  341      324.333       660.82
  342      324.796       660.46
  343      325.259       660.22
  344      325.722        660.1
  345      326.185        660.5
  346      326.647       661.06
  347       327.11       661.64
  348      327.573        662.1
  349      328.035       662.12
  350      328.498       661.64
  351       328.96       661.38
  352      329.423       661.22
  353      329.885       660.74
  354      330.347       660.06
  355       330.81        660.1
  356      331.272       660.04
  357      331.734       659.78
  358      332.196       659.72
  359      332.657       659.94
  360      333.119       659.82
  361      333.581       659.46
  362      334.043       658.62
  363      334.504       657.96
  364      334.966       657.92
  365      335.427        658.1
  366      335.888       658.92
  367       336.35        660.5
  368      336.811        661.8
  369      337.272        661.7
  370      337.733       661.02
  371      338.194       660.02
  372      338.655       658.82
  373      339.115        658.4
  374      339.576       659.48
  375      340.037       660.78
  376      340.497       661.62
  377      340.958       662.44
  378      341.418       662.96
  379      341.879        662.9
  380      342.339        662.6
  381      342.799       662.34
  382      343.259       661.94
  383      343.719        661.3
  384      344.179       660.92
  385      344.639       660.82
  386      345.099       661.06
  387      345.559       661.42
  388      346.018        661.8
  389      346.478       662.04
  390      346.937        662.2
  391      347.397       661.96
  392      347.856       661.76
  393      348.315        661.3
  394      348.774        660.6
  395      349.234       660.72
  396      349.693       661.36
  397      350.152        661.4
  398       350.61       661.12
  399      351.069       661.14
  400      351.528       660.94
  401      351.987       660.68
  402      352.445       660.76
  403      352.904       661.24
  404      353.362       661.74
  405       353.82       661.98
  406      354.279       661.96
  407      354.737       661.96
  408      355.195       661.92
  409      355.653       662.02
  410      356.111       661.66
  411      356.569        661.1
  412      357.027       660.48
  413      357.484       659.52
  414      357.942       658.28
  415      358.399       657.84
  416      358.857       658.26
  417      359.314       658.86
  418      359.772       659.52
  419      360.229       659.92
  420      360.686       660.06
  421      361.143       660.04
  422        361.6       660.12
  423      362.057       661.04
  424      362.514       662.44
  425      362.971       663.64
  426      363.427       664.04
  427      363.884       663.84
  428       364.34       663.06
  429      364.797       662.18
  430      365.253       661.74
  431      365.709       661.36
  432      366.166       660.94
  433      366.622        660.7
  434      367.078       660.46
  435      367.534       659.62
  436       367.99       659.06
  437      368.445       658.98
  438      368.901       658.52
  439      369.357        657.5
  440      369.812       656.96
  441      370.268       657.04
  442      370.723       657.46
  443      371.179        658.3
  444      371.634        659.5
  445      372.089        660.7
  446      372.544        661.6
  447      372.999        662.2
  448      373.454       662.92
  449      373.909       663.72
  450      374.364          664
  451      374.818        663.7
  452      375.273       663.36
  453      375.727          663
  454      376.182        662.4
  455      376.636        662.5
  456       377.09        663.4
  457      377.545       664.06
  458      377.999       663.88
  459      378.453        663.5
  460      378.907        662.8
  461      379.361       662.02
  462      379.814       661.62
  463      380.268       661.66
  464      380.722        661.6
  465      381.175        661.1
  466      381.629          661
  467      382.082       660.78
  468      382.535       660.42
  469      382.989       660.22
  470      383.442          660
  471      383.895        659.5
  472      384.348       659.22
  473      384.801       658.96
  474      385.253       658.46
  475      385.706       657.66
  476      386.159       656.62
  477      386.611       656.14
  478      387.064       655.94
  479      387.516       656.36
  480      387.968       657.72
  481      388.421        658.9
  482      388.873       659.42
  483      389.325        659.9
  484      389.777       659.88
  485      390.229       659.74
  486      390.681       659.94
  487      391.132       660.34
  488      391.584        661.2
  489      392.035       662.54
  490      392.487        662.9
  491      392.938        662.7
  492       393.39       662.92
  493      393.841       663.04
  494      394.292       663.02
  495      394.743       663.24
  496      395.194       663.94
  497      395.645       664.16
  498      396.096       663.66
  499      396.546       663.12
  500      396.997       663.02
  501      397.448       662.52
  502      397.898       661.92
  503      398.349       661.68
  504      398.799       661.34
  505      399.249       660.66
  506      399.699        659.8
  507      400.149       658.84
  508      400.599       657.66
  509      401.049        656.7
  510      401.499       655.94
  511      401.949       655.42
  512      402.398       655.56
  513      402.848       655.98
  514      403.297       656.48
  515      403.747       657.74
  516      404.196        659.7
  517      404.645       660.92
  518      405.094       661.86
  519      405.543       662.82
  520      405.992       663.16
  521      406.441       663.14
  522       406.89       663.22
  523      407.339       663.04
  524      407.787       662.62
  525      408.236        662.6
  526      408.684       662.62
  527      409.132       662.68
  528      409.581       662.84
  529      410.029        662.7
  530      410.477       661.72
  531      410.925       660.46
  532      411.373        659.5
  533      411.821       659.08
  534      412.269       659.62
  535      412.716       660.96
  536      413.164        662.2
  537      413.611       663.58
  538      414.059       664.68
  539      414.506       664.38
  540      414.953       663.62
  541        415.4          663
  542      415.847       661.88
  543      416.294        660.4
  544      416.741        659.6
  545      417.188        659.3
  546      417.635       658.98
  547      418.081       658.82
  548      418.528       659.24
  549      418.974       659.56
  550      419.421       660.06
  551      419.867       661.02
  552      420.313        661.9
  553      420.759       662.46
  554      421.205       663.34
  555      421.651       663.34
  556      422.097       662.64
  557      422.543       661.52
  558      422.989       660.92
  559      423.434       661.18
  560       423.88        661.8
  561      424.325       662.42
  562       424.77       663.04
  563      425.216       663.34
  564      425.661       663.22
  565      426.106       663.14
  566      426.551       662.44
  567      426.996       661.88
  568       427.44       661.42
  569      427.885       660.62
  570       428.33       659.52
  571      428.774       659.28
  572      429.219        659.5
  573      429.663       659.84
  574      430.107       660.26
  575      430.551       661.12
  576      430.996          662
  577       431.44       662.48
  578      431.883       662.84
  579      432.327       663.38
  580      432.771        663.8
  581      433.215        664.2
  582      433.658        664.1
  583      434.102       663.22
  584      434.545       662.44
  585      434.988       662.14
  586      435.431       661.96
  587      435.875       662.56
  588      436.318        663.9
  589      436.761       664.22
  590      437.203       663.66
  591      437.646       662.98
  592      438.089        662.1
  593      438.531        661.2
  594      438.974       660.72
  595      439.416       660.48
  596      439.859       660.22
  597      440.301       659.94
  598      440.743       659.66
  599      441.185       659.54
  600      441.627       659.32
  601      442.069       659.14
  602       442.51        659.6
  603      442.952        660.4
  604      443.394        660.9
  605      443.835       661.86
  606      444.277        662.9
  607      444.718       663.46
  608      445.159       663.56
  609        445.6       663.42
  610      446.041       662.88
  611      446.482        662.1
  612      446.923       660.92
  613      447.364       660.06
  614      447.804       660.04
  615      448.245       660.14
  616      448.685       660.64
  617      449.126        661.5
  618      449.566       661.56
  619      450.006        661.5
  620      450.447       661.42
  621      450.887       661.18
  622      451.326       661.48
  623      451.766       662.16
  624      452.206        662.2
  625      452.646        661.7
  626      453.085       661.02
  627      453.525       659.82
  628      453.964       658.76
  629      454.403       658.28
  630      454.843          659
  631      455.282       660.22
  632      455.721       661.26
  633       456.16       662.24
  634      456.599       662.62
  635      457.037       662.36
  636      457.476       661.46
  637      457.915       660.88
  638      458.353       660.74
  639      458.791        660.9
  640       459.23       660.82
  641      459.668       660.96
  642      460.106       661.12
  643      460.544        660.9
  644      460.982       661.12
  645       461.42       661.66
  646      461.857       662.02
  647      462.295       661.98
  648      462.733       661.24
  649       463.17        659.8
  650      463.607       659.16
  651      464.045       659.28
  652      464.482       659.64
  653      464.919       660.54
  654      465.356       661.84
  655      465.793       662.76
  656       466.23        662.7
  657      466.666       662.68
  658      467.103       662.54
  659      467.539       662.18
  660      467.976       661.74
  661      468.412       661.96
  662      468.848       661.88
  663      469.284       662.16
  664       469.72       663.12
  665      470.156       663.66
  666      470.592        663.4
  667      471.028       663.08
  668      471.464        663.1
  669      471.899       662.84
  670      472.335       662.14
  671       472.77       661.72
  672      473.205       661.76
  673      473.641       661.32
  674      474.076       660.46
  675      474.511       660.82
  676      474.946       661.74
  677       475.38        662.2
  678      475.815       663.16
  679       476.25       663.98
  680      476.684       664.02
  681      477.119        664.1
  682      477.553       664.78
  683      477.987       664.68
  684      478.421       664.44
  685      478.856        664.1
  686      479.289       663.18
  687      479.723       662.02
  688      480.157       660.84
  689      480.591       659.94
  690      481.024       659.32
  691      481.458        659.1
  692      481.891       659.36
  693      482.324       660.06
  694      482.758       660.42
  695      483.191       660.26
  696      483.624        660.2
  697      484.057          660
  698      484.489       660.48
  699      484.922        662.4
  700      485.355       665.04
  701      485.787       667.32
  702       486.22       669.16
  703      486.652       669.28
  704      487.084       667.86
  705      487.516       666.48
  706      487.948       665.12
  707       488.38       663.62
  708      488.812        662.8
  709      489.244       662.26
  710      489.676        661.1
  711      490.107       660.06
  712      490.539       659.42
  713       490.97       659.18
  714      491.401        659.5
  715      491.832       660.56
  716      492.263       661.68
  717      492.694       662.34
  718      493.125       662.78
  719      493.556       662.62
  720      493.987       661.48
  721      494.417       660.32
  722      494.848       659.88
  723      495.278       660.04
  724      495.708       660.62
  725      496.139       661.38
  726      496.569       662.16
  727      496.999       662.58
  728      497.429       662.88
  729      497.858       662.82
  730      498.288       662.66
  731      498.718        662.2
  732      499.147       661.52
  733      499.577       660.86
  734      500.006       660.42
  735      500.435        660.5
  736      500.864        660.9
  737      501.293       661.36
  738      501.722       661.98
  739      502.151        662.9
  740       502.58       663.36
  741      503.008       663.62
  742      503.437          664
  743      503.865       663.38
  744      504.293       662.22
  745      504.722       661.16
  746       505.15        660.3
  747      505.578       659.44
  748      506.006       658.88
  749      506.434       658.98
  750      506.861       659.78
  751      507.289       660.44
  752      507.716       661.06
  753      508.144       661.74
  754      508.571       661.78
  755      508.998       661.24
  756      509.425       660.74
  757      509.852        659.9
  758      510.279        658.7
  759      510.706       657.98
  760      511.133       658.16
  761       511.56       658.92
  762      511.986       659.48
  763      512.412       660.58
  764      512.839       661.84
  765      513.265       662.08
  766      513.691       662.16
  767      514.117        662.6
  768      514.543       662.38
  769      514.969        661.7
  770      515.395       661.26
  771       515.82       660.32
  772      516.246       659.58
  773      516.671       659.56
  774      517.096       659.94
  775      517.522       660.06
  776      517.947       660.26
  777      518.372       660.62
  778      518.797        660.2
  779      519.222        659.5
  780      519.646       659.84
  781      520.071        660.5
  782      520.495       660.42
  783       520.92       660.52
  784      521.344        660.9
  785      521.768       660.62
  786      522.192       660.12
  787      522.616        660.9
  788       523.04       662.98
  789      523.464        664.5
  790      523.888       665.32
  791      524.311       665.52
  792      524.735        664.7
  793      525.158       662.84
  794      525.581       661.12
  795      526.005        660.3
  796      526.428       660.24
  797      526.851       660.04
  798      527.274       659.78
  799      527.696       660.02
  800      528.119       659.78
  801      528.542        658.8
  802      528.964          658
  803      529.386       657.52
  804      529.809       657.36
  805      530.231       657.58
  806      530.653       658.44
  807      531.075        659.8
  808      531.497       661.16
  809      531.918       661.82
  810       532.34        662.1
  811      532.761       662.26
  812      533.183       662.22
  813      533.604       661.58
  814      534.025       660.42
  815      534.447       659.52
  816      534.868       658.64
  817      535.289       657.82
  818      535.709       658.06
  819       536.13       658.92
  820      536.551       659.56
  821      536.971          660
  822      537.392       660.52
  823      537.812        660.6
  824      538.232       660.44
  825      538.652       660.36
  826      539.072       660.92
  827      539.492       661.54
  828      539.912       661.88
  829      540.331       662.56
  830      540.751       663.44
  831       541.17       663.46
  832       541.59       663.18
  833      542.009       663.12
  834      542.428       662.68
  835      542.847          662
  836      543.266       661.32
  837      543.685       660.58
  838      544.104       659.72
  839      544.522       658.84
  840      544.941       657.88
  841      545.359       657.22
  842      545.778       657.12
  843      546.196       657.66
  844      546.614       658.78
  845      547.032       659.96
  846       547.45        660.9
  847      547.867       661.18
  848      548.285          661
  849      548.703       660.56
  850       549.12       659.86
  851      549.538       660.02
  852      549.955        661.2
  853      550.372       662.32
  854      550.789       662.92
  855      551.206       663.18
  856      551.623       662.62
  857      552.039       661.28
  858      552.456       659.92
  859      552.873       659.38
  860      553.289       659.18
  861      553.705        658.6
  862      554.121       658.34
  863      554.537       658.22
  864      554.953       657.92
  865      555.369       658.24
  866      555.785       658.92
  867      556.201       658.92
  868      556.616       658.72
  869      557.032       658.54
  870      557.447        658.5
  871      557.862        658.5
  872      558.277        658.5
  873      558.692        658.5
  874      559.107       658.72
  875      559.522       658.22
  876      559.937       658.24
  877      560.351       659.06
  878      560.766          660
  879       561.18       660.46
  880      561.595        661.1
  881      562.009        661.4
  882      562.423       661.14
  883      562.837       660.58
  884       563.25        660.1
  885      563.664       660.04
  886      564.078        659.9
  887      564.491       659.46
  888      564.905       659.56
  889      565.318        659.9
  890      565.731       659.74
  891      566.144          660
  892      566.557       660.64
  893       566.97       660.86
  894      567.383       660.94
  895      567.795        661.1
  896      568.208       660.96
  897       568.62        660.9
  898      569.033        660.9
  899      569.445       660.74
  900      569.857       660.62
  901      570.269       660.48
  902      570.681        660.5
  903      571.093       661.28
  904      571.504       662.44
  905      571.916       662.98
  906      572.327       663.52
  907      572.739       663.96
  908       573.15        663.6
  909      573.561       662.78
  910      573.972        662.4
  911      574.383       661.84
  912      574.794       661.08
  913      575.204       660.28
  914      575.615        659.4
  915      576.025        659.2
  916      576.436       659.72
  917      576.846       660.26
  918      577.256          661
  919      577.666       662.04
  920      578.076       662.28
  921      578.486       661.92
  922      578.896       661.74
  923      579.305       662.08
  924      579.715        662.5
  925      580.124       662.98
  926      580.533       663.58
  927      580.942       664.04
  928      581.351       663.94
  929       581.76       663.84
  930      582.169        664.8
  931      582.578       667.72
  932      582.986       674.68
  933      583.395        687.7
  934      583.803       707.44
  935      584.212       731.08
  936       584.62       753.64
  937      585.028       769.56
  938      585.436       774.44
  939      585.843       767.64
  940      586.251       753.06
  941      586.659        735.7
  942      587.066       720.18
  943      587.474       709.12
  944      587.881       701.68
  945      588.288       696.04
  946      588.695       691.14
  947      589.102       685.82
  948      589.509          680
  949      589.915       675.26
  950      590.322       671.58
  951      590.728       668.38
  952      591.135       666.54
  953      591.541       666.34
  954      591.947       666.78
  955      592.353       668.72
  956      592.759        673.2
  957      593.165       679.54
  958      593.571        686.7
  959      593.976       693.36
  960      594.382       697.56
  961      594.787       698.32
  962      595.192       695.82
  963      595.597       690.98
  964      596.002       685.34
  965      596.407       680.74
  966      596.812       677.38
  967      597.217       674.86
  968      597.621       672.82
  969      598.026          671
  970       598.43       668.74
  971      598.834       666.62
  972      599.238       665.44
  973      599.642       664.76
  974      600.046       663.98
  975       600.45          664
  976      600.854        664.4
  977      601.257        664.6
  978      601.661       665.46
  979      602.064       667.04
  980      602.467        668.4
  981       602.87       669.56
  982      603.273       670.28
  983      603.676        669.7
  984      604.079        668.6
  985      604.481        667.9
  986      604.884       667.94
  987      605.286       669.06
  988      605.689       672.04
  989      606.091        676.6
  990      606.493       681.56
  991      606.895        687.2
  992      607.297        693.3
  993      607.698       698.68
  994        608.1        703.5
  995      608.501       708.28
  996      608.903       711.12
  997      609.304       711.06
  998      609.705       709.08
  999      610.106       704.64
 1000      610.507       696.88
 1001      610.908       688.28
 1002      611.308       681.42
 1003      611.709       677.38
 1004      612.109       677.76
 1005       612.51       684.36
 1006       612.91       695.86
 1007       613.31       709.22
 1008       613.71       722.12
 1009       614.11       731.68
 1010       614.51       736.26
 1011      614.909        735.1
 1012      615.309       729.36
 1013      615.708       721.16
 1014      616.108        711.8
 1015      616.507        701.9
 1016      616.906       692.88
 1017      617.305       685.24
 1018      617.704       678.16
 1019      618.102       672.68
 1020      618.501        668.5
 1021      618.899        665.3
 1022      619.298       663.46
 1023      619.696       663.72
 1024      620.094        665.1
 1025      620.492        667.3
 1026       620.89       670.08
 1027      621.288       672.24
 1028      621.686        672.8
 1029      622.083       672.22
 1030       622.48       671.38
 1031      622.878       669.66
 1032      623.275       667.66
 1033      623.672       666.16
 1034      624.069       665.62
 1035      624.466       666.32
 1036      624.863       668.76
 1037      625.259       673.24
 1038      625.656        678.6
 1039      626.052       683.72
 1040      626.448       687.34
 1041      626.844        688.7
 1042      627.241        687.3
 1043      627.636       683.96
 1044      628.032       680.02
 1045      628.428       675.88
 1046      628.823       672.92
 1047      629.219        671.4
 1048      629.614       671.02
 1049      630.009        671.2
 1050      630.404       672.22
 1051      630.799       673.94
 1052      631.194       676.32
 1053      631.589       680.02
 1054      631.984       685.42
 1055      632.378        691.6
 1056      632.772       697.08
 1057      633.167       700.66
 1058      633.561       701.28
 1059      633.955       697.62
 1060      634.349       690.84
 1061      634.743       683.02
 1062      635.136       676.12
 1063       635.53       670.76
 1064      635.923       668.42
 1065      636.316       669.86
 1066       636.71       675.12
 1067      637.103       683.56
 1068      637.496       694.28
 1069      637.888       707.16
 1070      638.281       722.28
 1071      638.674        738.5
 1072      639.066       754.32
 1073      639.459       768.12
 1074      639.851       777.02
 1075      640.243       777.86
 1076      640.635        769.5
 1077      641.027       753.84
 1078      641.419       734.18
 1079       641.81       714.24
 1080      642.202        697.1
 1081      642.593       684.46
 1082      642.984       675.88
 1083      643.375        670.5
 1084      643.766       667.26
 1085      644.157       665.28
 1086      644.548        663.9
 1087      644.939       663.08
 1088      645.329       662.66
 1089       645.72       661.74
 1090       646.11       660.68
 1091        646.5       660.08
 1092       646.89       659.98
 1093       647.28       660.12
 1094       647.67       661.42
 1095       648.06       663.54
 1096      648.449       666.84
 1097      648.839        672.1
 1098      649.228       678.74
 1099      649.617       685.92
 1100      650.007        693.3
 1101      650.396       699.68
 1102      650.784       702.86
 1103      651.173       702.98
 1104      651.562        700.5
 1105       651.95       695.72
 1106      652.339       689.72
 1107      652.727       684.46
 1108      653.115       680.44
 1109      653.503       677.66
 1110      653.891        676.9
 1111      654.279       677.08
 1112      654.666        677.5
 1113      655.054       678.54
 1114      655.441       679.98
 1115      655.828       680.32
 1116      656.216        679.6
 1117      656.603       678.06
 1118      656.989       675.52
 1119      657.376       672.64
 1120      657.763       670.36
 1121      658.149        669.7
 1122      658.536        670.7
 1123      658.922       672.44
 1124      659.308       674.14
 1125      659.694       675.74
 1126       660.08       676.04
 1127      660.466        674.6
 1128      660.852       672.24
 1129      661.237       669.18
 1130      661.623       665.66
 1131      662.008       662.46
 1132      662.393       660.22
 1133      662.778       659.38
 1134      663.163       659.58
 1135      663.548       660.34
 1136      663.933       661.58
 1137      664.317       662.54
 1138      664.702       662.66
 1139      665.086        662.8
 1140       665.47        663.8
 1141      665.854       666.18
 1142      666.238        670.2
 1143      666.622        675.8
 1144      667.006       682.08
 1145      667.389       687.34
 1146      667.773        689.6
 1147      668.156       688.94
 1148      668.539       685.86
 1149      668.923       681.62
 1150      669.305       677.62
 1151      669.688       674.94
 1152      670.071        673.8
 1153      670.454       674.12
 1154      670.836       675.08
 1155      671.218       676.06
 1156      671.601       676.48
 1157      671.983       675.82
 1158      672.365       674.46
 1159      672.747       672.32
 1160      673.128       669.28
 1161       673.51        666.7
 1162      673.891          665
 1163      674.273       663.32
 1164      674.654       662.28
 1165      675.035       661.52
 1166      675.416       660.56
 1167      675.797       660.44
 1168      676.177       661.04
 1169      676.558       661.18
 1170      676.938       661.94
 1171      677.319       663.14
 1172      677.699       662.64
 1173      678.079       661.36
 1174      678.459        660.7
 1175      678.839        659.9
 1176      679.219       659.12
 1177      679.598       659.28
 1178      679.978        659.5
 1179      680.357       658.92
 1180      680.736       657.94
 1181      681.115          657
 1182      681.494       656.68
 1183      681.873       657.18
 1184      682.252       658.62
 1185       682.63       660.58
 1186      683.009       662.34
 1187      683.387        663.2
 1188      683.765       663.48
 1189      684.143       663.42
 1190      684.521       663.24
 1191      684.899       663.14
 1192      685.277       663.52
 1193      685.654       664.24
 1194      686.032       664.76
 1195      686.409       664.94
 1196      686.786          665
 1197      687.163        664.8
 1198       687.54       663.98
 1199      687.917       662.86
 1200      688.294       661.78
 1201       688.67       660.66
 1202      689.046       659.68
 1203      689.423       659.18
 1204      689.799       659.36
 1205      690.175       660.36
 1206      690.551       662.72
 1207      690.927        666.1
 1208      691.302       670.22
 1209      691.678       674.66
 1210      692.053       678.34
 1211      692.428       680.68
 1212      692.804        681.3
 1213      693.179       679.96
 1214      693.553       676.98
 1215      693.928        673.8
 1216      694.303       670.64
 1217      694.677       668.06
 1218      695.052       666.78
 1219      695.426       666.36
 1220        695.8          666
 1221      696.174       665.82
 1222      696.548        665.7
 1223      696.921       664.82
 1224      697.295       663.42
 1225      697.669       661.72
 1226      698.042       660.34
 1227      698.415       659.02
 1228      698.788        658.2
 1229      699.161        658.5
 1230      699.534       659.64
 1231      699.907        660.5
 1232      700.279        661.9
 1233      700.652       664.48
 1234      701.024       668.02
 1235      701.396       672.34
 1236      701.768       678.04
 1237       702.14       683.94
 1238      702.512       688.64
 1239      702.883        691.7
 1240      703.255       692.82
 1241      703.626       691.08
 1242      703.998       687.08
 1243      704.369       682.32
 1244       704.74       677.34
 1245      705.111       672.88
 1246      705.481        669.3
 1247      705.852       666.56
 1248      706.222        664.6
 1249      706.593       662.82
 1250      706.963       661.38
 1251      707.333       660.24
 1252      707.703        659.5
 1253      708.073       659.16
 1254      708.442        659.2
 1255      708.812        659.1
 1256      709.181       659.02
 1257      709.551       659.22
 1258       709.92       658.76
 1259      710.289        657.6
 1260      710.658       656.94
 1261      711.027        656.9
 1262      711.395       656.86
 1263      711.764        657.3
 1264      712.132        658.8
 1265        712.5       659.86
 1266      712.869       660.36
 1267      713.236       660.98
 1268      713.604       661.62
 1269      713.972       661.96
 1270       714.34        662.1
 1271      714.707       661.78
 1272      715.074       661.16
 1273      715.442        660.6
 1274      715.809       660.14
 1275      716.176        660.1
 1276      716.542       660.94
 1277      716.909       662.46
 1278      717.276          664
 1279      717.642       665.34
 1280      718.008       666.36
 1281      718.374       666.64
 1282       718.74       666.08
 1283      719.106       665.14
 1284      719.472       663.92
 1285      719.838       662.52
 1286      720.203       661.34
 1287      720.568       660.16
 1288      720.934        659.1
 1289      721.299        658.7
 1290      721.664       659.44
 1291      722.029       661.12
 1292      722.393       663.38
 1293      722.758       666.18
 1294      723.122        669.1
 1295      723.486       671.12
 1296      723.851       671.82
 1297      724.215       671.84
 1298      724.578       670.62
 1299      724.942       668.26
 1300      725.306       666.08
 1301      725.669       664.62
 1302      726.033          664
 1303      726.396       664.26
 1304      726.759       664.74
 1305      727.122       665.08
 1306      727.485       664.94
 1307      727.847       663.34
 1308       728.21       661.12
 1309      728.572       659.88
 1310      728.935       659.16
 1311      729.297       658.72
 1312      729.659        658.9
 1313      730.021       659.28
 1314      730.382       659.44
 1315      730.744       659.86
 1316      731.105       660.42
 1317      731.467       661.14
 1318      731.828       661.84
 1319      732.189        661.9
 1320       732.55       661.16
 1321      732.911       660.14
 1322      733.271       659.22
 1323      733.632       658.74
 1324      733.992       658.52
 1325      734.352       658.84
 1326      734.713       659.72
 1327      735.072       660.68
 1328      735.432       661.26
 1329      735.792       661.18
 1330      736.152       660.44
 1331      736.511        659.4
 1332       736.87       658.54
 1333      737.229       657.98
 1334      737.589       658.24
 1335      737.947       658.88
 1336      738.306       659.36
 1337      738.665       659.98
 1338      739.023       660.58
 1339      739.382       660.64
 1340       739.74       660.38
 1341      740.098       660.48
 1342      740.456        660.5
 1343      740.814       660.32
 1344      741.171       660.32
 1345      741.529       660.26
 1346      741.886        660.5
 1347      742.244       660.74
 1348      742.601        661.2
 1349      742.958       662.02
 1350      743.314       662.62
 1351      743.671       662.28
 1352      744.028       661.46
 1353      744.384        660.7
 1354       744.74       659.46
 1355      745.097       658.62
 1356      745.453       658.62
 1357      745.809       658.82
 1358      746.164       658.84
 1359       746.52       659.24
 1360      746.875       659.78
 1361      747.231       659.72
 1362      747.586       659.64
 1363      747.941       659.54
 1364      748.296       659.16
 1365      748.651       658.74
 1366      749.005       659.16
 1367       749.36       660.08
 1368      749.714       660.74
 1369      750.069       661.44
 1370      750.423       662.32
 1371      750.777       662.64
 1372       751.13       662.66
 1373      751.484       662.92
 1374      751.838        663.3
 1375      752.191          663
 1376      752.544       661.98
 1377      752.897        660.9
 1378       753.25       660.16
 1379      753.603       659.42
 1380      753.956       658.86
 1381      754.309       658.74
 1382      754.661       658.66
 1383      755.013        658.5
 1384      755.365       658.58
 1385      755.717       659.08
 1386      756.069       659.88
 1387      756.421       660.56
 1388      756.773       660.76
 1389      757.124       660.98
 1390      757.476       661.04
 1391      757.827       660.52
 1392      758.178       659.74
 1393      758.529       659.92
 1394      758.879       660.12
 1395       759.23       660.28
 1396      759.581       660.54
 1397      759.931       660.52
 1398      760.281       659.58
 1399      760.631        658.4
 1400      760.981       656.94
 1401      761.331       655.98
 1402      761.681       655.54
 1403       762.03       655.46
 1404      762.379       656.16
 1405      762.729        657.5
 1406      763.078       658.28
 1407      763.427       658.96
 1408      763.776        659.9
 1409      764.124          660
 1410      764.473        659.9
 1411      764.821       660.52
 1412      765.169       661.08
 1413      765.517       661.06
 1414      765.865       661.12
 1415      766.213       661.18
 1416      766.561        660.6
 1417      766.909       660.14
 1418      767.256       660.34
 1419      767.603       660.84
 1420       767.95       661.24
 1421      768.297       661.78
 1422      768.644        661.8
 1423      768.991       661.16
 1424      769.337       660.44
 1425      769.684       659.36
 1426       770.03       658.34
 1427      770.376       658.14
 1428      770.722       658.36
 1429      771.068       658.66
 1430      771.414       659.74
 1431      771.759       661.08
 1432      772.105       662.38
 1433       772.45       663.52
 1434      772.795        664.4
 1435       773.14        664.5
 1436      773.485       663.92
 1437       773.83       662.54
 1438      774.174       660.94
 1439      774.519       659.06
 1440      774.863       657.32
 1441      775.207       656.62
 1442      775.551       656.98
 1443      775.895       657.58
 1444      776.239       658.68
 1445      776.582        660.2
 1446      776.926       660.88
 1447      777.269       660.84
 1448      777.612       661.06
 1449      777.955        660.6
 1450      778.298       660.02
 1451      778.641       659.98
 1452      778.983       660.06
 1453      779.326       659.82
 1454      779.668       660.38
 1455       780.01       660.82
 1456      780.352       660.48
 1457      780.694       659.98
 1458      781.036        659.6
 1459      781.377       659.06
 1460      781.719       658.72
 1461       782.06       659.22
 1462      782.401       659.54
 1463      782.742       659.36
 1464      783.083       659.16
 1465      783.424        659.7
 1466      783.764       660.18
 1467      784.105        660.5
 1468      784.445       660.72
 1469      784.785       660.96
 1470      785.125        660.6
 1471      785.465       660.26
 1472      785.805       660.48
 1473      786.144       661.16
 1474      786.484       661.86
 1475      786.823       662.06
 1476      787.162       661.94
 1477      787.501       661.62
 1478       787.84       661.62
 1479      788.178       661.52
 1480      788.517       661.18
 1481      788.855       660.56
 1482      789.194        660.5
 1483      789.532       660.18
 1484       789.87       659.88
 1485      790.208       660.44
 1486      790.545       661.28
 1487      790.883        661.8
 1488       791.22       661.92
 1489      791.557        661.6
 1490      791.894       661.14
 1491      792.231        660.8
 1492      792.568       659.88
 1493      792.905       659.14
 1494      793.241       658.94
 1495      793.578        659.1
 1496      793.914       659.12
 1497       794.25       659.26
 1498      794.586       659.42
 1499      794.922       659.38
 1500      795.257       658.92
 1501      795.593       658.42
 1502      795.928       658.36
 1503      796.263        658.5
 1504      796.598        658.2
 1505      796.933        657.3
 1506      797.268          657
 1507      797.603       657.04
 1508      797.937        656.9
 1509      798.271        656.9
 1510      798.606       657.58
 1511       798.94       657.94
 1512      799.274       657.82
 1513      799.607       658.04
 1514      799.941       658.14
 1515      800.274       657.82
 1516      800.608       657.44
 1517      800.941       657.12
 1518      801.274       656.92
 1519      801.607        658.1
 1520      801.939       660.12
 1521      802.272       661.36
 1522      802.604        661.8
 1523      802.936       661.42
 1524      803.269       659.86
 1525      803.601       658.28
 1526      803.932        657.8
 1527      804.264       658.16
 1528      804.596       659.12
 1529      804.927        659.9
 1530      805.258          660
 1531      805.589       659.62
 1532       805.92        659.3
 1533      806.251       659.06
 1534      806.582       658.86
 1535      806.912       658.58
 1536      807.242       658.44
 1537      807.573       658.36
 1538      807.903       658.36
 1539      808.232       658.72
 1540      808.562       658.92
 1541      808.892       659.34
 1542      809.221       660.24
 1543      809.551       660.72
 1544       809.88       660.96
 1545      810.209       661.54
 1546      810.538       661.88
 1547      810.866       661.42
 1548      811.195       660.44
 1549      811.523       659.66
 1550      811.851       659.12
 1551       812.18        658.1
 1552      812.507       657.42
 1553      812.835       657.48
 1554      813.163       657.66
 1555       813.49       658.04
 1556      813.818          659
 1557      814.145       659.36
 1558      814.472       659.34
 1559      814.799       659.24
 1560      815.126       659.16
 1561      815.452       659.54
 1562      815.779       660.64
 1563      816.105       662.04
 1564      816.431       662.88
 1565      816.757       662.72
 1566      817.083       662.14
 1567      817.409       661.44
 1568      817.734       660.74
 1569       818.06       660.84
 1570      818.385       661.46
 1571       818.71       661.86
 1572      819.035       662.58
 1573       819.36       663.26
 1574      819.685       663.28
 1575      820.009       662.76
 1576      820.333       662.08
 1577      820.658       661.08
 1578      820.982       660.02
 1579      821.305       659.12
 1580      821.629       658.84
 1581      821.953       658.88
 1582      822.276        658.7
 1583        822.6       658.36
 1584      822.923       658.18
 1585      823.246       657.76
 1586      823.569        657.1
 1587      823.891       656.78
 1588      824.214        656.9
 1589      824.536       656.98
 1590      824.858       657.08
 1591       825.18       657.44
 1592      825.502       657.76
 1593      825.824       657.86
 1594      826.146       658.18
 1595      826.467       658.88
 1596      826.789       659.72
 1597       827.11       660.14
 1598      827.431        660.3
 1599      827.752       660.24
 1600      828.072       659.94
 1601      828.393       658.98
 1602      828.713        658.2
 1603      829.034       658.08
 1604      829.354       658.12
 1605      829.674       658.14
 1606      829.993       658.34
 1607      830.313       658.32
 1608      830.633       657.54
 1609      830.952       656.56
 1610      831.271       655.56
 1611       831.59       655.24
 1612      831.909       655.74
 1613      832.228       656.46
 1614      832.546        657.1
 1615      832.865       657.98
 1616      833.183       658.66
 1617      833.501       659.06
 1618      833.819       659.62
 1619      834.137        660.4
 1620      834.455       660.64
 1621      834.772        660.4
 1622      835.089       659.92
 1623      835.407       659.18
 1624      835.724        658.3
 1625       836.04        657.4
 1626      836.357       656.74
 1627      836.674       656.68
 1628       836.99       657.68
 1629      837.306       658.78
 1630      837.623       659.62
 1631      837.939       660.46
 1632      838.254       660.82
 1633       838.57       660.22
 1634      838.886       659.56
 1635      839.201       659.26
 1636      839.516       659.08
 1637      839.831        659.6
 1638      840.146       660.32
 1639      840.461       660.78
 1640      840.775       661.36
 1641       841.09       661.54
 1642      841.404       660.42
 1643      841.718       659.54
 1644      842.032       659.04
 1645      842.346       658.32
 1646      842.659       657.72
 1647      842.973        657.7
 1648      843.286       657.56
 1649      843.599        656.9
 1650      843.912       656.32
 1651      844.225       656.26
 1652      844.538       656.44
 1653      844.851       657.02
 1654      845.163       658.04
 1655      845.475       659.18
 1656      845.787       659.78
 1657      846.099        659.8
 1658      846.411       659.36
 1659      846.723       658.72
 1660      847.034       658.06
 1661      847.345       658.08
 1662      847.657       657.98
 1663      847.968          658
 1664      848.278       658.78
 1665      848.589       660.04
 1666        848.9       660.82
 1667       849.21       661.26
 1668       849.52       661.34
 1669       849.83       661.54
 1670       850.14       661.56
 1671       850.45       661.38
 1672      850.759       661.92
 1673      851.069       662.34
 1674      851.378       662.34
 1675      851.687       662.18
 1676      851.996       661.72
 1677      852.305       661.14
 1678      852.614       661.04
 1679      852.922       660.88
 1680       853.23       660.44
 1681      853.539       660.14
 1682      853.847       659.62
 1683      854.154       658.84
 1684      854.462        658.1
 1685       854.77       657.48
 1686      855.077       657.36
 1687      855.384       657.62
 1688      855.691        657.5
 1689      855.998       657.48
 1690      856.305       658.22
 1691      856.612        659.1
 1692      856.918       659.42
 1693      857.224       659.84
 1694       857.53        660.4
 1695      857.836       660.24
 1696      858.142       659.92
 1697      858.448        660.2
 1698      858.753       660.84
 1699      859.059        660.7
 1700      859.364       660.38
 1701      859.669       660.08
 1702      859.974       659.66
 1703      860.278       659.32
 1704      860.583        659.5
 1705      860.887       659.78
 1706      861.192       660.04
 1707      861.496        660.6
 1708        861.8       661.14
 1709      862.103       661.08
 1710      862.407       661.14
 1711       862.71       661.24
 1712      863.014       661.24
 1713      863.317       660.78
 1714       863.62       660.46
 1715      863.922       659.98
 1716      864.225       659.54
 1717      864.527       658.98
 1718       864.83       658.48
 1719      865.132       658.56
 1720      865.434       659.02
 1721      865.736       659.16
 1722      866.037       659.18
 1723      866.339       659.66
 1724       866.64       659.72
 1725      866.941       659.28
 1726      867.242       658.52
 1727      867.543        657.5
 1728      867.844        656.8
 1729      868.145       656.54
 1730      868.445        656.9
 1731      868.745       657.68
 1732      869.045       658.54
 1733      869.345       658.88
 1734      869.645        658.4
 1735      869.944        657.5
 1736      870.244       656.96
 1737      870.543       656.36
 1738      870.842       655.72
 1739      871.141       656.14
 1740       871.44       657.08
 1741      871.739        657.5
 1742      872.037          658
 1743      872.335       658.52
 1744      872.634       659.02
 1745      872.931        659.3
 1746      873.229       659.48
 1747      873.527        659.2
 1748      873.824       658.94
 1749      874.122       658.26
 1750      874.419       657.62
 1751      874.716        657.4
 1752      875.013       657.52
 1753      875.309        657.6
 1754      875.606       657.24
 1755      875.902        656.3
 1756      876.199       655.94
 1757      876.495        656.6
 1758       876.79       657.56
 1759      877.086       658.78
 1760      877.382       660.22
 1761      877.677       661.04
 1762      877.972       661.14
 1763      878.267       660.68
 1764      878.562       660.34
 1765      878.857       659.68
 1766      879.152        658.6
 1767      879.446       658.06
 1768       879.74        657.8
 1769      880.034       657.34
 1770      880.328        657.4
 1771      880.622       657.68
 1772      880.916       657.28
 1773      881.209       657.02
 1774      881.502       657.02
 1775      881.795       656.72
 1776      882.088          656
 1777      882.381       655.62
 1778      882.674       655.78
 1779      882.966       656.26
 1780      883.258       656.68
 1781      883.551       657.44
 1782      883.843        658.5
 1783      884.134       658.82
 1784      884.426       658.52
 1785      884.717        658.2
 1786      885.009       657.94
 1787        885.3       657.48
 1788      885.591       657.46
 1789      885.882        657.5
 1790      886.172       657.88
 1791      886.463       658.74
 1792      886.753       659.94
 1793      887.043        661.1
 1794      887.333       661.88
 1795      887.623       662.08
 1796      887.913        661.5
 1797      888.202       660.46
 1798      888.492        659.1
 1799      888.781       658.12
 1800       889.07       658.18
 1801      889.359       658.18
 1802      889.647       657.62
 1803      889.936       657.34
 1804      890.224       657.38
 1805      890.512       656.92
 1806        890.8        656.7
 1807      891.088          657
 1808      891.376       657.34
 1809      891.663       657.68
 1810      891.951       658.38
 1811      892.238       659.18
 1812      892.525       659.72
 1813      892.812       659.72
 1814      893.099       659.24
 1815      893.385       658.82
 1816      893.671       658.82
 1817      893.958       658.96
 1818      894.244       659.32
 1819       894.53          660
 1820      894.815        660.2
 1821      895.101       660.34
 1822      895.386       660.36
 1823      895.671        659.9
 1824      895.956       659.48
 1825      896.241       659.08
 1826      896.526       658.84
 1827       896.81       658.56
 1828      897.095       658.52
 1829      897.379        658.8
 1830      897.663        659.3
 1831      897.947       658.88
 1832      898.231       658.32
 1833      898.514       658.52
 1834      898.798       658.74
 1835      899.081       659.24
 1836      899.364       660.28
 1837      899.647       661.38
 1838      899.929          662
 1839      900.212       662.16
 1840      900.494       661.72
 1841      900.776       661.16
 1842      901.058       660.72
 1843       901.34       660.16
 1844      901.622       659.82
 1845      901.904       659.68
 1846      902.185        659.8
 1847      902.466       660.28
 1848      902.747       660.56
 1849      903.028       660.28
 1850      903.309       660.28
 1851      903.589        660.5
 1852       903.87       660.64
 1853       904.15        660.7
 1854       904.43        660.4
 1855       904.71       659.64
 1856      904.989       658.84
 1857      905.269       657.94
 1858      905.548       657.24
 1859      905.827       657.08
 1860      906.106       657.16
 1861      906.385       657.08
 1862      906.664       657.32
 1863      906.942       658.42
 1864      907.221       659.86
 1865      907.499       660.94
 1866      907.777       661.62
 1867      908.055          662
 1868      908.332       661.96
 1869       908.61       661.58
 1870      908.887       661.38
 1871      909.164       661.26
 1872      909.441       660.66
 1873      909.718        659.6
 1874      909.995       658.84
 1875      910.271          658
 1876      910.548        657.4
 1877      910.824       657.38
 1878        911.1       657.72
 1879      911.375       657.86
 1880      911.651       658.12
 1881      911.927       658.16
 1882      912.202       657.86
 1883      912.477       657.28
 1884      912.752       656.74
 1885      913.027       656.36
 1886      913.301       655.92
 1887      913.576       655.78
 1888       913.85       655.78
 1889      914.124       655.88
 1890      914.398       656.28
 1891      914.672       657.32
 1892      914.945        658.5
 1893      915.219       659.22
 1894      915.492       660.04
 1895      915.765       660.42
 1896      916.038       659.98
 1897      916.311       658.76
 1898      916.583       658.18
 1899      916.856       657.58
 1900      917.128        656.7
 1901        917.4       656.24
 1902      917.672       656.64
 1903      917.944       656.88
 1904      918.215       657.24
 1905      918.486       657.98
 1906      918.758       658.14
 1907      919.029       657.88
 1908      919.299       657.68
 1909       919.57       657.08
 1910      919.841       656.86
 1911      920.111          658
 1912      920.381        659.2
 1913      920.651       660.08
 1914      920.921       661.54
 1915      921.191       663.16
 1916       921.46        663.8
 1917      921.729       664.22
 1918      921.999       664.36
 1919      922.268       663.52
 1920      922.536       662.08
 1921      922.805          661
 1922      923.073       660.16
 1923      923.342       659.76
 1924       923.61       660.28
 1925      923.878       661.04
 1926      924.145        661.7
 1927      924.413       662.04
 1928       924.68       662.52
 1929      924.948        662.5
 1930      925.215       661.72
 1931      925.482       660.96
 1932      925.748       660.56
 1933      926.015       659.82
 1934      926.281       659.54
 1935      926.547        659.6
 1936      926.813          659
 1937      927.079       658.36
 1938      927.345       658.06
 1939       927.61       657.52
 1940      927.876        656.9
 1941      928.141        656.7
 1942      928.406       656.36
 1943      928.671       655.94
 1944      928.935       655.52
 1945        929.2        655.5
 1946      929.464       655.58
 1947      929.728       656.14
 1948      929.992       657.64
 1949      930.256       659.48
 1950       930.52       660.76
 1951      930.783       661.56
 1952      931.046       662.18
 1953      931.309       661.76
 1954      931.572       660.58
 1955      931.835       660.12
 1956      932.097       660.32
 1957       932.36       660.44
 1958      932.622       660.64
 1959      932.884       660.82
 1960      933.146       660.44
 1961      933.408       659.66
 1962      933.669       658.86
 1963       933.93        658.3
 1964      934.192       657.96
 1965      934.453        658.1
 1966      934.713        659.2
 1967      934.974       660.12
 1968      935.234       660.66
 1969      935.495       661.46
 1970      935.755        662.1
 1971      936.015       662.02
 1972      936.274       662.14
 1973      936.534       662.46
 1974      936.793        662.5
 1975      937.053        662.2
 1976      937.312       662.14
 1977      937.571       662.12
 1978      937.829       661.66
 1979      938.088       661.28
 1980      938.346       661.46
 1981      938.604        661.2
 1982      938.862       660.42
 1983       939.12       660.22
 1984      939.378        660.1
 1985      939.635       659.34
 1986      939.893       658.76
 1987       940.15       658.58
 1988      940.407       658.24
 1989      940.663       658.04
 1990       940.92       658.38
 1991      941.176       658.54
 1992      941.433       658.62
 1993      941.689        658.9
 1994      941.944        659.2
 1995        942.2       659.42
 1996      942.456        659.7
 1997      942.711       660.06
 1998      942.966       660.12
 1999      943.221       660.02
 2000      943.476        659.5
 2001      943.731       659.22
 2002      943.985       658.92
 2003      944.239       658.76
 2004      944.493        659.2
 2005      944.747       660.24
 2006      945.001       661.04
 2007      945.255       661.58
 2008      945.508        661.2
 2009      945.761       659.52
 2010      946.014        657.8
 2011      946.267       656.76
 2012       946.52       656.48
 2013      946.772       656.94
 2014      947.025       658.18
 2015      947.277       659.04
 2016      947.529       659.26
 2017      947.781        659.2
 2018      948.032       658.96
 2019      948.284        658.3
 2020      948.535        657.9
 2021      948.786       657.92
 2022      949.037       657.46
 2023      949.288       656.98
 2024      949.538       656.86
 2025      949.789        656.3
 2026      950.039        655.7
 2027      950.289       656.12
 2028      950.539       656.94
 2029      950.788        657.3
 2030      951.038       657.74
 2031      951.287       658.04
 2032      951.536       658.12
 2033      951.785       658.32
 2034      952.034       658.42
 2035      952.282       658.18
 2036      952.531        657.8
 2037      952.779       657.48
 2038      953.027       657.44
 2039      953.275        658.1
 2040      953.523       659.16
 2041       953.77       659.96
 2042      954.017       659.86
 2043      954.264        659.1
 2044      954.511       658.58
 2045      954.758        658.4
 2046      955.005      658.175
 2047      955.251        658.3
