scansci Spectrometer Data File
--- Measurement Setting ---
Type: Sample Spectrum
Date: Mon Oct 16 15:51:08 2023
User: (Reserved by scansci)
Serial: (Reserved by scansci)
Channel: No. 11
Integration Time: 1
Average: 10
Boxcar: 2
Electrical Dark: No-corrected
Time Normalize: (Reserved by scansci)
Dual-beam: (Reserved by scansci)
Reference Ch: (Reserved by scansci)
--- Measurement Data ---
Pixel   Wavelength   Intensity
    0        162.5      623.867
    1      162.985      624.925
    2      163.469       625.22
    3      163.954       625.62
    4      164.439        625.5
    5      164.923       625.12
    6      165.408       624.86
    7      165.892       624.76
    8      166.377       625.18
    9      166.861       625.66
   10      167.345       624.96
   11       167.83       623.72
   12      168.314       623.26
   13      168.798       623.14
   14      169.282       623.02
   15      169.766       623.56
   16       170.25        624.4
   17      170.734       624.82
   18      171.218       625.22
   19      171.702       625.88
   20      172.185       626.42
   21      172.669        626.8
   22      173.153       627.12
   23      173.636       627.58
   24       174.12        628.1
   25      174.603       629.08
   26      175.087       629.72
   27       175.57       629.84
   28      176.053       629.38
   29      176.537       628.48
   30       177.02        627.7
   31      177.503        627.8
   32      177.986       629.04
   33      178.469        630.4
   34      178.952       631.84
   35      179.435       633.14
   36      179.918       633.54
   37      180.401       633.82
   38      180.884        635.2
   39      181.366       636.86
   40      181.849       637.94
   41      182.332        638.7
   42      182.814       638.28
   43      183.297       636.96
   44      183.779       636.04
   45      184.262       635.84
   46      184.744       636.56
   47      185.226       637.76
   48      185.708       638.58
   49      186.191       638.82
   50      186.673          639
   51      187.155        639.1
   52      187.637       639.26
   53      188.119        639.6
   54        188.6        639.6
   55      189.082          639
   56      189.564       638.62
   57      190.046       638.18
   58      190.527       637.22
   59      191.009       636.66
   60      191.491       636.82
   61      191.972       637.02
   62      192.454       636.94
   63      192.935       637.44
   64      193.416       638.08
   65      193.897       638.22
   66      194.379       638.02
   67       194.86       638.42
   68      195.341       639.34
   69      195.822        640.1
   70      196.303        640.4
   71      196.784       640.46
   72      197.265        640.5
   73      197.746        640.4
   74      198.226       640.62
   75      198.707       641.44
   76      199.188       642.02
   77      199.668       641.98
   78      200.149       641.98
   79      200.629       641.98
   80       201.11       642.06
   81       201.59        642.4
   82       202.07       643.22
   83       202.55       643.82
   84      203.031        644.1
   85      203.511        644.3
   86      203.991        644.7
   87      204.471       645.26
   88      204.951       645.52
   89      205.431       645.64
   90       205.91       646.04
   91       206.39       645.92
   92       206.87       645.76
   93      207.349       646.54
   94      207.829       647.88
   95      208.309       649.28
   96      208.788       650.46
   97      209.267       650.48
   98      209.747       649.22
   99      210.226       647.84
  100      210.705       646.34
  101      211.185       645.68
  102      211.664       646.02
  103      212.143          647
  104      212.622       647.66
  105      213.101       647.62
  106      213.579       647.24
  107      214.058       647.36
  108      214.537        647.7
  109      215.016       648.06
  110      215.494       649.16
  111      215.973       650.24
  112      216.452       650.58
  113       216.93       650.66
  114      217.408        650.5
  115      217.887       650.38
  116      218.365       650.38
  117      218.843        649.8
  118      219.321       649.38
  119      219.799       649.76
  120      220.278       649.94
  121      220.755       650.18
  122      221.233        650.9
  123      221.711       651.08
  124      222.189       650.52
  125      222.667       649.82
  126      223.144        649.7
  127      223.622       650.22
  128        224.1       650.88
  129      224.577       651.72
  130      225.055       652.92
  131      225.532       653.68
  132      226.009       654.24
  133      226.486       654.74
  134      226.964       654.94
  135      227.441        655.3
  136      227.918       655.48
  137      228.395       655.16
  138      228.872       654.86
  139      229.349       654.78
  140      229.826        654.7
  141      230.302       655.02
  142      230.779       655.88
  143      231.256       656.82
  144      231.732       657.48
  145      232.209       656.86
  146      232.685       655.34
  147      233.162       653.36
  148      233.638        651.6
  149      234.114       650.16
  150       234.59       649.26
  151      235.066       648.78
  152      235.543       648.78
  153      236.019       648.76
  154      236.495        648.9
  155       236.97       649.62
  156      237.446       650.74
  157      237.922       652.34
  158      238.398        654.8
  159      238.873          657
  160      239.349       658.44
  161      239.824       659.34
  162        240.3       659.08
  163      240.775       658.14
  164      241.251       657.66
  165      241.726       657.94
  166      242.201       658.52
  167      242.676          659
  168      243.151       658.92
  169      243.626       658.52
  170      244.101       657.68
  171      244.576       656.66
  172      245.051       656.24
  173      245.526       656.18
  174          246       656.64
  175      246.475        656.8
  176       246.95       656.54
  177      247.424       656.44
  178      247.899       656.58
  179      248.373       656.88
  180      248.847        657.8
  181      249.321       658.86
  182      249.796       659.32
  183       250.27        658.7
  184      250.744        656.9
  185      251.218       655.24
  186      251.692       654.08
  187      252.166       653.66
  188      252.639       653.84
  189      253.113       654.48
  190      253.587        655.6
  191       254.06       656.84
  192      254.534        657.3
  193      255.007       658.14
  194      255.481       659.08
  195      255.954       659.32
  196      256.427       659.38
  197      256.901       659.72
  198      257.374       660.42
  199      257.847       661.22
  200       258.32       661.42
  201      258.793       661.28
  202      259.266       661.02
  203      259.739       660.24
  204      260.211       659.34
  205      260.684       658.72
  206      261.157       658.16
  207      261.629       658.22
  208      262.102       658.76
  209      262.574          659
  210      263.046       659.32
  211      263.519       659.72
  212      263.991       659.52
  213      264.463       658.88
  214      264.935       658.42
  215      265.407        657.9
  216      265.879        657.3
  217      266.351       657.04
  218      266.823       656.42
  219      267.295       654.92
  220      267.766       653.64
  221      268.238       652.78
  222       268.71       651.94
  223      269.181       651.74
  224      269.653       652.38
  225      270.124       652.86
  226      270.595        653.6
  227      271.066       654.76
  228      271.538       655.18
  229      272.009       655.78
  230       272.48       657.26
  231      272.951        658.6
  232      273.422       659.58
  233      273.892       661.04
  234      274.363       661.64
  235      274.834        660.7
  236      275.305       659.06
  237      275.775       657.22
  238      276.246        655.5
  239      276.716       654.66
  240      277.186       654.28
  241      277.657       654.48
  242      278.127       655.18
  243      278.597       655.48
  244      279.067        655.2
  245      279.537       655.58
  246      280.007       655.86
  247      280.477       655.08
  248      280.947       654.52
  249      281.417        654.9
  250      281.886       654.98
  251      282.356       654.82
  252      282.825       655.34
  253      283.295       655.94
  254      283.764        656.1
  255      284.234       656.24
  256      284.703       656.66
  257      285.172        657.5
  258      285.641       657.74
  259       286.11       657.32
  260      286.579       657.26
  261      287.048       657.24
  262      287.517       656.32
  263      287.986       655.74
  264      288.454       655.86
  265      288.923       655.32
  266      289.392       654.08
  267       289.86       653.16
  268      290.329        652.4
  269      290.797        651.4
  270      291.265        650.7
  271      291.734        650.9
  272      292.202       651.24
  273       292.67        651.5
  274      293.138       652.46
  275      293.606        653.9
  276      294.074       655.28
  277      294.541       656.76
  278      295.009       657.94
  279      295.477       658.36
  280      295.944       657.86
  281      296.412       657.08
  282      296.879       656.28
  283      297.347       655.52
  284      297.814       655.12
  285      298.281       655.24
  286      298.749       655.62
  287      299.216       656.08
  288      299.683       656.24
  289       300.15        655.8
  290      300.616       655.88
  291      301.083       656.04
  292       301.55       655.78
  293      302.017       656.06
  294      302.483       656.42
  295       302.95       655.82
  296      303.416       654.98
  297      303.883       654.84
  298      304.349          655
  299      304.815       654.94
  300      305.281        655.2
  301      305.748       655.32
  302      306.214       654.94
  303       306.68       654.78
  304      307.146        655.4
  305      307.611       656.46
  306      308.077       657.84
  307      308.543       659.54
  308      309.008       660.92
  309      309.474       661.78
  310      309.939       662.18
  311      310.405       662.34
  312       310.87       662.82
  313      311.335       663.54
  314        311.8       664.12
  315      312.266       664.18
  316      312.731        664.2
  317      313.196       664.36
  318       313.66       663.92
  319      314.125       663.36
  320       314.59       663.82
  321      315.055       664.78
  322      315.519       664.78
  323      315.984       664.28
  324      316.448       663.78
  325      316.913       662.66
  326      317.377        661.2
  327      317.841       659.76
  328      318.305       658.54
  329      318.769       657.34
  330      319.233       656.26
  331      319.697       655.42
  332      320.161       654.94
  333      320.625       654.16
  334      321.089       653.86
  335      321.552       653.76
  336      322.016       652.78
  337      322.479       650.94
  338      322.943       649.02
  339      323.406       646.56
  340      323.869        644.1
  341      324.333       642.36
  342      324.796       641.26
  343      325.259       640.94
  344      325.722          641
  345      326.185       641.14
  346      326.647       640.78
  347       327.11       639.74
  348      327.573       639.06
  349      328.035        638.5
  350      328.498       637.74
  351       328.96       637.58
  352      329.423       638.62
  353      329.885       639.34
  354      330.347       639.88
  355       330.81        640.1
  356      331.272       639.74
  357      331.734       638.94
  358      332.196       638.22
  359      332.657       637.36
  360      333.119       636.74
  361      333.581       636.72
  362      334.043       636.92
  363      334.504       637.26
  364      334.966       637.82
  365      335.427       638.64
  366      335.888       639.54
  367       336.35       639.82
  368      336.811       639.42
  369      337.272       638.96
  370      337.733       638.26
  371      338.194       636.92
  372      338.655       636.12
  373      339.115       635.98
  374      339.576       635.64
  375      340.037       635.06
  376      340.497       634.62
  377      340.958       633.98
  378      341.418       633.08
  379      341.879       632.68
  380      342.339       633.04
  381      342.799       633.18
  382      343.259       633.82
  383      343.719       634.94
  384      344.179       635.66
  385      344.639        635.9
  386      345.099        636.2
  387      345.559       636.04
  388      346.018       635.68
  389      346.478       635.78
  390      346.937       635.46
  391      347.397       635.06
  392      347.856       634.58
  393      348.315       634.12
  394      348.774        633.7
  395      349.234       633.66
  396      349.693       633.94
  397      350.152        634.3
  398       350.61       634.24
  399      351.069        633.6
  400      351.528       632.96
  401      351.987       631.92
  402      352.445       630.92
  403      352.904       630.68
  404      353.362       631.08
  405       353.82       631.74
  406      354.279       633.06
  407      354.737       634.38
  408      355.195       635.28
  409      355.653       636.38
  410      356.111       637.08
  411      356.569       637.14
  412      357.027       637.02
  413      357.484       636.58
  414      357.942       635.66
  415      358.399       635.02
  416      358.857       635.08
  417      359.314       635.82
  418      359.772        636.7
  419      360.229       637.36
  420      360.686       637.82
  421      361.143       638.08
  422        361.6        637.8
  423      362.057       637.54
  424      362.514        637.2
  425      362.971       636.68
  426      363.427       636.34
  427      363.884        636.2
  428       364.34          636
  429      364.797       636.02
  430      365.253        636.2
  431      365.709        636.7
  432      366.166       637.44
  433      366.622       638.16
  434      367.078       638.48
  435      367.534       638.46
  436       367.99       637.74
  437      368.445       636.76
  438      368.901       635.92
  439      369.357        635.8
  440      369.812       636.02
  441      370.268       636.16
  442      370.723       636.32
  443      371.179       636.64
  444      371.634        636.7
  445      372.089       636.36
  446      372.544       636.06
  447      372.999       635.76
  448      373.454       635.34
  449      373.909        634.9
  450      374.364       634.54
  451      374.818       634.26
  452      375.273        634.3
  453      375.727        634.7
  454      376.182        635.1
  455      376.636       635.88
  456       377.09       637.08
  457      377.545       637.86
  458      377.999       637.96
  459      378.453       637.86
  460      378.907       638.18
  461      379.361        638.1
  462      379.814        637.9
  463      380.268       637.92
  464      380.722       638.14
  465      381.175        638.8
  466      381.629       639.52
  467      382.082       639.66
  468      382.535       639.84
  469      382.989        640.3
  470      383.442       639.82
  471      383.895       639.52
  472      384.348       640.24
  473      384.801        640.9
  474      385.253       641.44
  475      385.706       642.18
  476      386.159       642.38
  477      386.611       642.14
  478      387.064       642.06
  479      387.516       641.64
  480      387.968       640.78
  481      388.421       640.04
  482      388.873       639.16
  483      389.325       638.58
  484      389.777       638.24
  485      390.229       638.28
  486      390.681       638.66
  487      391.132       639.32
  488      391.584       639.76
  489      392.035        640.2
  490      392.487       640.68
  491      392.938       641.14
  492       393.39       641.42
  493      393.841       641.14
  494      394.292       640.46
  495      394.743          640
  496      395.194       639.66
  497      395.645        639.3
  498      396.096        639.4
  499      396.546       640.04
  500      396.997        640.3
  501      397.448       640.52
  502      397.898        641.1
  503      398.349       641.74
  504      398.799       641.92
  505      399.249       642.28
  506      399.699       642.44
  507      400.149       642.18
  508      400.599       641.84
  509      401.049        642.1
  510      401.499       642.94
  511      401.949       645.94
  512      402.398       653.06
  513      402.848       665.08
  514      403.297       680.48
  515      403.747       695.52
  516      404.196       706.12
  517      404.645       709.22
  518      405.094       704.12
  519      405.543        692.8
  520      405.992        679.3
  521      406.441       667.16
  522       406.89       657.78
  523      407.339       651.38
  524      407.787       647.32
  525      408.236       644.16
  526      408.684       642.24
  527      409.132       641.42
  528      409.581       640.34
  529      410.029       639.48
  530      410.477       639.96
  531      410.925       640.16
  532      411.373        639.9
  533      411.821       640.32
  534      412.269       640.46
  535      412.716       640.38
  536      413.164        640.7
  537      413.611       641.42
  538      414.059       642.58
  539      414.506       644.94
  540      414.953       647.82
  541        415.4       649.98
  542      415.847       651.62
  543      416.294        652.3
  544      416.741       651.66
  545      417.188       650.32
  546      417.635        650.3
  547      418.081       651.36
  548      418.528       653.04
  549      418.974       655.16
  550      419.421       657.04
  551      419.867       657.18
  552      420.313       656.04
  553      420.759       654.16
  554      421.205       651.18
  555      421.651       648.04
  556      422.097        645.8
  557      422.543       644.06
  558      422.989       642.88
  559      423.434       642.86
  560       423.88       643.16
  561      424.325        643.2
  562       424.77       643.68
  563      425.216       644.84
  564      425.661        646.1
  565      426.106       647.78
  566      426.551        649.1
  567      426.996       649.62
  568       427.44        649.4
  569      427.885       648.74
  570       428.33        647.8
  571      428.774       647.04
  572      429.219       646.88
  573      429.663       646.74
  574      430.107       646.34
  575      430.551        645.4
  576      430.996       644.58
  577       431.44       643.88
  578      431.883       643.56
  579      432.327       643.96
  580      432.771       644.74
  581      433.215       645.54
  582      433.658       645.64
  583      434.102       644.68
  584      434.545       643.32
  585      434.988       642.08
  586      435.431       640.86
  587      435.875       640.18
  588      436.318        640.8
  589      436.761       641.94
  590      437.203       642.94
  591      437.646       643.84
  592      438.089       644.34
  593      438.531       644.22
  594      438.974       643.52
  595      439.416        642.5
  596      439.859       641.42
  597      440.301       640.76
  598      440.743        640.2
  599      441.185       640.34
  600      441.627       641.14
  601      442.069       641.52
  602       442.51        641.4
  603      442.952       641.62
  604      443.394       641.44
  605      443.835       640.56
  606      444.277       639.82
  607      444.718       639.28
  608      445.159       638.16
  609        445.6       637.02
  610      446.041       637.04
  611      446.482       637.32
  612      446.923       637.86
  613      447.364       639.12
  614      447.804       640.66
  615      448.245       641.76
  616      448.685       643.06
  617      449.126       644.16
  618      449.566       644.94
  619      450.006       645.72
  620      450.447       646.02
  621      450.887       646.46
  622      451.326       647.34
  623      451.766       647.72
  624      452.206       647.78
  625      452.646       648.12
  626      453.085       648.14
  627      453.525       647.34
  628      453.964       646.76
  629      454.403       646.08
  630      454.843       645.46
  631      455.282        644.8
  632      455.721        644.2
  633       456.16       643.82
  634      456.599       643.02
  635      457.037       641.58
  636      457.476       640.24
  637      457.915       639.46
  638      458.353       639.02
  639      458.791       639.44
  640       459.23       640.44
  641      459.668       641.78
  642      460.106        642.5
  643      460.544       642.52
  644      460.982       642.28
  645       461.42       641.82
  646      461.857        641.2
  647      462.295       641.08
  648      462.733        641.2
  649       463.17        641.1
  650      463.607       641.48
  651      464.045       642.52
  652      464.482       643.86
  653      464.919       645.64
  654      465.356        649.1
  655      465.793       653.22
  656       466.23          657
  657      466.666       659.36
  658      467.103       660.32
  659      467.539        659.1
  660      467.976       655.92
  661      468.412       652.26
  662      468.848       649.56
  663      469.284       647.82
  664       469.72       646.62
  665      470.156       646.24
  666      470.592       645.96
  667      471.028       645.54
  668      471.464        644.9
  669      471.899        644.2
  670      472.335       643.94
  671       472.77       644.22
  672      473.205       644.56
  673      473.641       645.22
  674      474.076        646.6
  675      474.511        647.8
  676      474.946       648.04
  677       475.38       647.68
  678      475.815       646.98
  679       476.25       645.66
  680      476.684       644.42
  681      477.119       644.02
  682      477.553       644.36
  683      477.987       644.92
  684      478.421       645.72
  685      478.856       646.76
  686      479.289       647.56
  687      479.723       647.66
  688      480.157       646.98
  689      480.591        646.1
  690      481.024       645.16
  691      481.458        644.3
  692      481.891       644.16
  693      482.324       644.58
  694      482.758       644.98
  695      483.191       645.64
  696      483.624       646.14
  697      484.057       646.64
  698      484.489        647.3
  699      484.922       647.64
  700      485.355       647.54
  701      485.787       647.88
  702       486.22        648.1
  703      486.652       648.04
  704      487.084       648.04
  705      487.516       648.12
  706      487.948       648.04
  707       488.38       647.96
  708      488.812       647.88
  709      489.244       648.16
  710      489.676        648.4
  711      490.107       648.62
  712      490.539       647.78
  713       490.97       646.64
  714      491.401       645.46
  715      491.832       644.46
  716      492.263       643.28
  717      492.694       642.88
  718      493.125       643.16
  719      493.556       643.44
  720      493.987       643.58
  721      494.417       644.04
  722      494.848        645.2
  723      495.278       647.52
  724      495.708       653.58
  725      496.139       666.12
  726      496.569       685.88
  727      496.999        711.6
  728      497.429        738.9
  729      497.858       760.86
  730      498.288        771.4
  731      498.718       767.86
  732      499.147        752.2
  733      499.577        730.3
  734      500.006       707.76
  735      500.435       688.78
  736      500.864        675.2
  737      501.293        666.6
  738      501.722        660.9
  739      502.151       656.92
  740       502.58       654.46
  741      503.008       653.24
  742      503.437       652.16
  743      503.865       651.56
  744      504.293       651.22
  745      504.722       650.14
  746       505.15       649.22
  747      505.578        648.9
  748      506.006       647.92
  749      506.434       647.38
  750      506.861       647.72
  751      507.289       647.74
  752      507.716       647.56
  753      508.144       648.02
  754      508.571       648.14
  755      508.998        647.7
  756      509.425       647.44
  757      509.852       648.18
  758      510.279       649.46
  759      510.706       650.92
  760      511.133        652.3
  761       511.56        653.4
  762      511.986        653.9
  763      512.412       654.64
  764      512.839       656.32
  765      513.265        659.4
  766      513.691        664.3
  767      514.117       669.94
  768      514.543       674.96
  769      514.969       678.74
  770      515.395       680.26
  771       515.82       678.74
  772      516.246       675.22
  773      516.671       670.68
  774      517.096       665.58
  775      517.522       661.38
  776      517.947       658.08
  777      518.372       655.42
  778      518.797       654.02
  779      519.222        653.1
  780      519.646       651.52
  781      520.071       650.16
  782      520.495       650.18
  783       520.92       650.44
  784      521.344       650.66
  785      521.768       651.42
  786      522.192       651.98
  787      522.616       651.64
  788       523.04       651.16
  789      523.464       651.76
  790      523.888        652.8
  791      524.311       653.96
  792      524.735       654.88
  793      525.158       654.88
  794      525.581       654.14
  795      526.005       653.16
  796      526.428       652.34
  797      526.851        651.9
  798      527.274       651.66
  799      527.696       651.28
  800      528.119       651.44
  801      528.542        652.4
  802      528.964       653.44
  803      529.386       654.58
  804      529.809       656.12
  805      530.231       657.74
  806      530.653        659.1
  807      531.075       660.44
  808      531.497       661.28
  809      531.918       661.36
  810       532.34       660.68
  811      532.761       659.78
  812      533.183       658.86
  813      533.604       658.28
  814      534.025       658.02
  815      534.447       658.08
  816      534.868       657.72
  817      535.289       657.66
  818      535.709        658.9
  819       536.13       660.36
  820      536.551       661.34
  821      536.971       662.14
  822      537.392       662.28
  823      537.812       661.22
  824      538.232       660.62
  825      538.652       660.88
  826      539.072       661.56
  827      539.492       662.14
  828      539.912        663.1
  829      540.331          664
  830      540.751       664.38
  831       541.17       664.24
  832       541.59        664.1
  833      542.009        664.4
  834      542.428       664.36
  835      542.847       664.46
  836      543.266       665.64
  837      543.685       667.82
  838      544.104       669.32
  839      544.522        670.3
  840      544.941          671
  841      545.359       671.14
  842      545.778        670.6
  843      546.196       670.16
  844      546.614       670.02
  845      547.032       669.92
  846       547.45       670.08
  847      547.867       670.66
  848      548.285        671.1
  849      548.703        671.7
  850       549.12       672.74
  851      549.538       673.72
  852      549.955       674.84
  853      550.372       676.56
  854      550.789        678.3
  855      551.206        679.2
  856      551.623       679.78
  857      552.039       680.02
  858      552.456       680.28
  859      552.873       680.86
  860      553.289        682.4
  861      553.705       684.58
  862      554.121        686.9
  863      554.537       688.92
  864      554.953       690.96
  865      555.369       692.72
  866      555.785        693.7
  867      556.201       694.32
  868      556.616       694.94
  869      557.032       695.66
  870      557.447       696.88
  871      557.862        699.1
  872      558.277       701.54
  873      558.692       703.68
  874      559.107       704.98
  875      559.522       705.74
  876      559.937       705.82
  877      560.351       705.72
  878      560.766        706.3
  879       561.18       708.04
  880      561.595       710.16
  881      562.009       712.92
  882      562.423       715.78
  883      562.837        718.2
  884       563.25       720.94
  885      563.664       724.46
  886      564.078       727.18
  887      564.491       729.92
  888      564.905       734.24
  889      565.318       741.14
  890      565.731       756.86
  891      566.144       798.68
  892      566.557       887.14
  893       566.97      1035.52
  894      567.383         1237
  895      567.795      1458.24
  896      568.208      1650.44
  897       568.62      1765.58
  898      569.033      1773.52
  899      569.445      1677.82
  900      569.857      1515.86
  901      570.269      1333.18
  902      570.681      1166.32
  903      571.093      1037.54
  904      571.504       952.44
  905      571.916          902
  906      572.327       874.84
  907      572.739       862.54
  908       573.15        858.4
  909      573.561       858.92
  910      573.972       862.74
  911      574.383        869.9
  912      574.794       880.02
  913      575.204       892.68
  914      575.615       907.72
  915      576.025       924.96
  916      576.436       942.88
  917      576.846       961.14
  918      577.256       980.18
  919      577.666      1000.48
  920      578.076       1022.4
  921      578.486       1047.1
  922      578.896         1075
  923      579.305      1105.82
  924      579.715      1139.44
  925      580.124      1174.18
  926      580.533      1209.34
  927      580.942      1246.02
  928      581.351      1284.48
  929       581.76      1325.58
  930      582.169       1372.8
  931      582.578      1426.62
  932      582.986       1486.4
  933      583.395      1554.76
  934      583.803       1633.5
  935      584.212      1725.52
  936       584.62       1838.4
  937      585.028      1988.88
  938      585.436      2237.66
  939      585.843      2953.76
  940      586.251      4810.86
  941      586.659      7664.98
  942      587.066        10467
  943      587.474      13153.5
  944      587.881      15351.7
  945      588.288        16383
  946      588.695        16383
  947      589.102        16383
  948      589.509        16383
  949      589.915        16383
  950      590.322        16383
  951      590.728        16383
  952      591.135      15803.4
  953      591.541      14507.2
  954      591.947        12711
  955      592.353      10570.5
  956      592.759      8192.72
  957      593.165       6226.8
  958      593.571       4854.7
  959      593.976       3893.4
  960      594.382      3212.26
  961      594.787       2720.1
  962      595.192      2359.78
  963      595.597      2094.02
  964      596.002      1895.48
  965      596.407       1744.3
  966      596.812      1627.56
  967      597.217      1535.16
  968      597.621      1461.28
  969      598.026      1400.28
  970       598.43      1347.22
  971      598.834       1299.6
  972      599.238      1255.74
  973      599.642      1214.44
  974      600.046      1175.96
  975       600.45      1140.38
  976      600.854      1108.42
  977      601.257      1080.12
  978      601.661      1054.68
  979      602.064      1031.62
  980      602.467      1013.34
  981       602.87      1002.58
  982      603.273      1000.74
  983      603.676       1007.9
  984      604.079      1022.86
  985      604.481      1041.36
  986      604.884      1058.58
  987      605.286      1073.88
  988      605.689      1086.26
  989      606.091      1091.74
  990      606.493      1089.46
  991      606.895       1080.1
  992      607.297      1062.46
  993      607.698      1038.18
  994        608.1      1012.92
  995      608.501       989.84
  996      608.903       969.28
  997      609.304       952.04
  998      609.705       937.58
  999      610.106       925.06
 1000      610.507       915.46
 1001      610.908       908.58
 1002      611.308       902.18
 1003      611.709       895.94
 1004      612.109       890.06
 1005       612.51       884.42
 1006       612.91        880.6
 1007       613.31       881.34
 1008       613.71       889.46
 1009       614.11       905.86
 1010       614.51        928.9
 1011      614.909        954.8
 1012      615.309       976.64
 1013      615.708       987.94
 1014      616.108       985.44
 1015      616.507       968.24
 1016      616.906        938.9
 1017      617.305       904.96
 1018      617.704       872.06
 1019      618.102       842.72
 1020      618.501       818.76
 1021      618.899       800.16
 1022      619.298          785
 1023      619.696       772.08
 1024      620.094       760.62
 1025      620.492       750.32
 1026       620.89       740.78
 1027      621.288       731.44
 1028      621.686       722.26
 1029      622.083       714.02
 1030       622.48       706.12
 1031      622.878       698.44
 1032      623.275       691.96
 1033      623.672       686.64
 1034      624.069       682.26
 1035      624.466       679.58
 1036      624.863       678.14
 1037      625.259        677.2
 1038      625.656       676.38
 1039      626.052        675.6
 1040      626.448       674.32
 1041      626.844        672.8
 1042      627.241       671.72
 1043      627.636       670.86
 1044      628.032       670.06
 1045      628.428       669.26
 1046      628.823       669.06
 1047      629.219       669.24
 1048      629.614       669.48
 1049      630.009       669.38
 1050      630.404       668.86
 1051      630.799        668.2
 1052      631.194       666.48
 1053      631.589        664.3
 1054      631.984       662.62
 1055      632.378       661.34
 1056      632.772        660.2
 1057      633.167       659.48
 1058      633.561       659.02
 1059      633.955       658.76
 1060      634.349       658.36
 1061      634.743       657.68
 1062      635.136       657.52
 1063       635.53       657.78
 1064      635.923       657.58
 1065      636.316        657.4
 1066       636.71       657.24
 1067      637.103        656.7
 1068      637.496        656.2
 1069      637.888       655.86
 1070      638.281       655.24
 1071      638.674       655.08
 1072      639.066       655.26
 1073      639.459       654.98
 1074      639.851       654.46
 1075      640.243       654.28
 1076      640.635       653.72
 1077      641.027       652.86
 1078      641.419       652.12
 1079       641.81        651.4
 1080      642.202       650.68
 1081      642.593       649.66
 1082      642.984       648.44
 1083      643.375        647.3
 1084      643.766        646.6
 1085      644.157        646.4
 1086      644.548       646.38
 1087      644.939       646.18
 1088      645.329       646.02
 1089       645.72       645.98
 1090       646.11       644.92
 1091        646.5        644.1
 1092       646.89       643.74
 1093       647.28       643.02
 1094       647.67       642.04
 1095       648.06        641.8
 1096      648.449          641
 1097      648.839       640.02
 1098      649.228       639.92
 1099      649.617       640.04
 1100      650.007       640.36
 1101      650.396       641.84
 1102      650.784       643.38
 1103      651.173       644.18
 1104      651.562       644.34
 1105       651.95       644.04
 1106      652.339       643.48
 1107      652.727       643.26
 1108      653.115       643.32
 1109      653.503       643.56
 1110      653.891        643.7
 1111      654.279       643.38
 1112      654.666        643.3
 1113      655.054       643.54
 1114      655.441       643.54
 1115      655.828        643.5
 1116      656.216       643.88
 1117      656.603       643.42
 1118      656.989       641.88
 1119      657.376       640.56
 1120      657.763       639.66
 1121      658.149        638.6
 1122      658.536       637.82
 1123      658.922       638.12
 1124      659.308        638.5
 1125      659.694       638.88
 1126       660.08       639.16
 1127      660.466       638.94
 1128      660.852       638.18
 1129      661.237        637.7
 1130      661.623       637.52
 1131      662.008       637.58
 1132      662.393       637.78
 1133      662.778       637.84
 1134      663.163        637.4
 1135      663.548       636.48
 1136      663.933       635.52
 1137      664.317       635.22
 1138      664.702        635.4
 1139      665.086       636.36
 1140       665.47       637.62
 1141      665.854       638.76
 1142      666.238       639.64
 1143      666.622        640.6
 1144      667.006       641.16
 1145      667.389       641.18
 1146      667.773       640.54
 1147      668.156        639.9
 1148      668.539       638.92
 1149      668.923       637.72
 1150      669.305       637.16
 1151      669.688       637.18
 1152      670.071       637.34
 1153      670.454       637.68
 1154      670.836       638.12
 1155      671.218       638.26
 1156      671.601       638.16
 1157      671.983       638.24
 1158      672.365       638.02
 1159      672.747       637.86
 1160      673.128        637.9
 1161       673.51       637.88
 1162      673.891       637.52
 1163      674.273        637.6
 1164      674.654       637.46
 1165      675.035        636.8
 1166      675.416       636.68
 1167      675.797       636.82
 1168      676.177        636.5
 1169      676.558       636.12
 1170      676.938        635.9
 1171      677.319       635.34
 1172      677.699        634.5
 1173      678.079       634.12
 1174      678.459       634.54
 1175      678.839       635.16
 1176      679.219       635.26
 1177      679.598       635.22
 1178      679.978       635.04
 1179      680.357       634.24
 1180      680.736       633.44
 1181      681.115       633.38
 1182      681.494        633.5
 1183      681.873       633.14
 1184      682.252       632.62
 1185       682.63        632.5
 1186      683.009       632.74
 1187      683.387       633.26
 1188      683.765       634.18
 1189      684.143        635.2
 1190      684.521       635.48
 1191      684.899       635.16
 1192      685.277       634.56
 1193      685.654       633.88
 1194      686.032       633.08
 1195      686.409       632.36
 1196      686.786       632.22
 1197      687.163       632.66
 1198       687.54       633.08
 1199      687.917       633.74
 1200      688.294       634.44
 1201       688.67       634.56
 1202      689.046       634.66
 1203      689.423       635.16
 1204      689.799          635
 1205      690.175       634.82
 1206      690.551       635.08
 1207      690.927       635.36
 1208      691.302       635.32
 1209      691.678       635.68
 1210      692.053       636.52
 1211      692.428       637.36
 1212      692.804       638.18
 1213      693.179       640.72
 1214      693.553       645.82
 1215      693.928       653.84
 1216      694.303          666
 1217      694.677        682.5
 1218      695.052       700.74
 1219      695.426        718.2
 1220        695.8       731.22
 1221      696.174       736.78
 1222      696.548       733.92
 1223      696.921        722.9
 1224      697.295       706.26
 1225      697.669       688.72
 1226      698.042       672.08
 1227      698.415       657.62
 1228      698.788       647.56
 1229      699.161        641.3
 1230      699.534       636.92
 1231      699.907       634.28
 1232      700.279       632.72
 1233      700.652       631.56
 1234      701.024        630.9
 1235      701.396        630.3
 1236      701.768       630.16
 1237       702.14       630.58
 1238      702.512       631.14
 1239      702.883       632.04
 1240      703.255       634.02
 1241      703.626       636.94
 1242      703.998       641.58
 1243      704.369       648.86
 1244       704.74       658.96
 1245      705.111       670.96
 1246      705.481        683.5
 1247      705.852       693.92
 1248      706.222       699.56
 1249      706.593        699.3
 1250      706.963       693.62
 1251      707.333       683.56
 1252      707.703       671.68
 1253      708.073       660.78
 1254      708.442       651.68
 1255      708.812        644.5
 1256      709.181       639.38
 1257      709.551       635.76
 1258       709.92       632.96
 1259      710.289       631.06
 1260      710.658       630.68
 1261      711.027        631.3
 1262      711.395       631.94
 1263      711.764       632.52
 1264      712.132        633.6
 1265        712.5        634.4
 1266      712.869       634.54
 1267      713.236       634.86
 1268      713.604       635.22
 1269      713.972       635.12
 1270       714.34       634.58
 1271      714.707       633.68
 1272      715.074       632.52
 1273      715.442       631.68
 1274      715.809        630.9
 1275      716.176       629.42
 1276      716.542       628.04
 1277      716.909        627.1
 1278      717.276       625.86
 1279      717.642       624.54
 1280      718.008       624.24
 1281      718.374        624.9
 1282       718.74       625.48
 1283      719.106        626.5
 1284      719.472       627.06
 1285      719.838       626.64
 1286      720.203       626.26
 1287      720.568       626.36
 1288      720.934       626.04
 1289      721.299       626.16
 1290      721.664       626.92
 1291      722.029       626.74
 1292      722.393       626.24
 1293      722.758       625.76
 1294      723.122        625.1
 1295      723.486       624.88
 1296      723.851       625.54
 1297      724.215        626.7
 1298      724.578       628.68
 1299      724.942       631.88
 1300      725.306        635.5
 1301      725.669        638.8
 1302      726.033       642.18
 1303      726.396        645.2
 1304      726.759        646.4
 1305      727.122       645.72
 1306      727.485       643.68
 1307      727.847       640.28
 1308       728.21       636.22
 1309      728.572        632.5
 1310      728.935       629.52
 1311      729.297       627.78
 1312      729.659       626.88
 1313      730.021       626.44
 1314      730.382       626.12
 1315      730.744       626.38
 1316      731.105       626.98
 1317      731.467        626.7
 1318      731.828       625.84
 1319      732.189       625.64
 1320       732.55        625.4
 1321      732.911       624.64
 1322      733.271       624.92
 1323      733.632       626.02
 1324      733.992       626.36
 1325      734.352       626.82
 1326      734.713       628.64
 1327      735.072       632.36
 1328      735.432       639.36
 1329      735.792        650.5
 1330      736.152       665.02
 1331      736.511       681.58
 1332       736.87       697.88
 1333      737.229       711.62
 1334      737.589        721.2
 1335      737.947       724.76
 1336      738.306        722.1
 1337      738.665       713.98
 1338      739.023        700.9
 1339      739.382        685.1
 1340       739.74       669.82
 1341      740.098       656.42
 1342      740.456       645.66
 1343      740.814       638.08
 1344      741.171       633.16
 1345      741.529       629.82
 1346      741.886       626.94
 1347      742.244        624.4
 1348      742.601       622.66
 1349      742.958       621.34
 1350      743.314       620.68
 1351      743.671       621.52
 1352      744.028       623.14
 1353      744.384        624.5
 1354       744.74        625.7
 1355      745.097       626.26
 1356      745.453       625.88
 1357      745.809        625.1
 1358      746.164       624.38
 1359       746.52       624.14
 1360      746.875       624.94
 1361      747.231       628.58
 1362      747.586       636.26
 1363      747.941       648.26
 1364      748.296       664.94
 1365      748.651       685.48
 1366      749.005       707.74
 1367       749.36       729.72
 1368      749.714       748.86
 1369      750.069       761.86
 1370      750.423        767.1
 1371      750.777       763.72
 1372       751.13       751.92
 1373      751.484       734.24
 1374      751.838        714.4
 1375      752.191       694.48
 1376      752.544       676.12
 1377      752.897       661.14
 1378       753.25        650.1
 1379      753.603       642.28
 1380      753.956        636.6
 1381      754.309       632.84
 1382      754.661       630.44
 1383      755.013        628.4
 1384      755.365       627.24
 1385      755.717        627.6
 1386      756.069        628.6
 1387      756.421       629.22
 1388      756.773       629.84
 1389      757.124       629.72
 1390      757.476       629.18
 1391      757.827       628.94
 1392      758.178        629.1
 1393      758.529       629.58
 1394      758.879       630.84
 1395       759.23       633.32
 1396      759.581       638.34
 1397      759.931       649.14
 1398      760.281       670.56
 1399      760.631          706
 1400      760.981       754.92
 1401      761.331       815.06
 1402      761.681       880.54
 1403       762.03       942.04
 1404      762.379        997.5
 1405      762.729      1059.22
 1406      763.078      1149.72
 1407      763.427       1300.3
 1408      763.776      1535.36
 1409      764.124      1849.26
 1410      764.473       2207.2
 1411      764.821      2550.14
 1412      765.169      2808.56
 1413      765.517      2931.78
 1414      765.865      2909.34
 1415      766.213      2771.68
 1416      766.561      2585.34
 1417      766.909      2424.72
 1418      767.256      2341.68
 1419      767.603      2353.74
 1420       767.95      2439.22
 1421      768.297       2546.5
 1422      768.644      2616.18
 1423      768.991      2604.36
 1424      769.337      2493.72
 1425      769.684       2296.1
 1426       770.03      2042.56
 1427      770.376       1770.5
 1428      770.722      1512.72
 1429      771.068      1291.94
 1430      771.414      1116.42
 1431      771.759       982.74
 1432      772.105        883.5
 1433       772.45       810.84
 1434      772.795       757.66
 1435       773.14       719.32
 1436      773.485       691.86
 1437       773.83        672.2
 1438      774.174       658.06
 1439      774.519        648.1
 1440      774.863       641.38
 1441      775.207       636.66
 1442      775.551       633.24
 1443      775.895       631.12
 1444      776.239       630.28
 1445      776.582       630.08
 1446      776.926       630.36
 1447      777.269        630.8
 1448      777.612       631.12
 1449      777.955       630.94
 1450      778.298       629.78
 1451      778.641        627.7
 1452      778.983       625.88
 1453      779.326       624.64
 1454      779.668       623.12
 1455       780.01        622.1
 1456      780.352        622.3
 1457      780.694       622.38
 1458      781.036        621.9
 1459      781.377       622.12
 1460      781.719        622.5
 1461       782.06       621.72
 1462      782.401        621.2
 1463      782.742        621.6
 1464      783.083       621.72
 1465      783.424        621.7
 1466      783.764       622.08
 1467      784.105       622.04
 1468      784.445       621.56
 1469      784.785       620.86
 1470      785.125       620.46
 1471      785.465        620.8
 1472      785.805       621.26
 1473      786.144       621.28
 1474      786.484       621.46
 1475      786.823        621.6
 1476      787.162       620.82
 1477      787.501       619.68
 1478       787.84       618.94
 1479      788.178       618.26
 1480      788.517       617.54
 1481      788.855       617.46
 1482      789.194       617.24
 1483      789.532       616.56
 1484       789.87       616.34
 1485      790.208       616.38
 1486      790.545       616.36
 1487      790.883       616.92
 1488       791.22       619.08
 1489      791.557       623.18
 1490      791.894        629.2
 1491      792.231       637.62
 1492      792.568       647.74
 1493      792.905       657.32
 1494      793.241       664.14
 1495      793.578       667.44
 1496      793.914        666.8
 1497       794.25        662.9
 1498      794.586        656.9
 1499      794.922        650.1
 1500      795.257       643.32
 1501      795.593       637.18
 1502      795.928       632.24
 1503      796.263       628.34
 1504      796.598       625.66
 1505      796.933       624.76
 1506      797.268       625.78
 1507      797.603       628.84
 1508      797.937       634.52
 1509      798.271       642.78
 1510      798.606       652.54
 1511       798.94       662.44
 1512      799.274        671.3
 1513      799.607       677.88
 1514      799.941        680.8
 1515      800.274       679.64
 1516      800.608       674.68
 1517      800.941       666.76
 1518      801.274       657.16
 1519      801.607       647.52
 1520      801.939       639.34
 1521      802.272       632.94
 1522      802.604       627.94
 1523      802.936       624.12
 1524      803.269       621.44
 1525      803.601       619.18
 1526      803.932       617.84
 1527      804.264        617.7
 1528      804.596       617.98
 1529      804.927        618.6
 1530      805.258       619.26
 1531      805.589        619.4
 1532       805.92       619.54
 1533      806.251       620.66
 1534      806.582       622.48
 1535      806.912        626.3
 1536      807.242       633.96
 1537      807.573       646.18
 1538      807.903       664.22
 1539      808.232       689.48
 1540      808.562       721.96
 1541      808.892        758.7
 1542      809.221       794.76
 1543      809.551       824.28
 1544       809.88       841.82
 1545      810.209       843.16
 1546      810.538          828
 1547      810.866       800.54
 1548      811.195        765.7
 1549      811.523       729.58
 1550      811.851       697.34
 1551       812.18       671.74
 1552      812.507       653.04
 1553      812.835       640.74
 1554      813.163       632.86
 1555       813.49       628.34
 1556      813.818       627.06
 1557      814.145       628.94
 1558      814.472       636.24
 1559      814.799       653.38
 1560      815.126       683.38
 1561      815.452        729.3
 1562      815.779       793.24
 1563      816.105       872.76
 1564      816.431       961.46
 1565      816.757      1049.84
 1566      817.083       1124.5
 1567      817.409      1172.84
 1568      817.734      1187.06
 1569       818.06       1163.7
 1570      818.385      1106.98
 1571       818.71      1028.36
 1572      819.035       942.04
 1573       819.36       859.58
 1574      819.685        789.8
 1575      820.009       735.34
 1576      820.333        695.9
 1577      820.658       668.78
 1578      820.982       650.58
 1579      821.305        637.8
 1580      821.629       629.84
 1581      821.953       624.92
 1582      822.276       622.04
 1583        822.6       621.18
 1584      822.923       621.46
 1585      823.246       622.74
 1586      823.569       625.52
 1587      823.891       628.66
 1588      824.214        631.3
 1589      824.536       633.36
 1590      824.858        634.2
 1591       825.18       633.68
 1592      825.502       631.34
 1593      825.824       627.58
 1594      826.146       623.92
 1595      826.467       620.78
 1596      826.789        618.1
 1597       827.11        616.3
 1598      827.431       615.42
 1599      827.752       614.86
 1600      828.072       614.16
 1601      828.393       612.86
 1602      828.713       612.18
 1603      829.034       611.78
 1604      829.354       611.34
 1605      829.674       611.12
 1606      829.993       611.44
 1607      830.313       611.42
 1608      830.633        611.7
 1609      830.952       612.92
 1610      831.271       614.24
 1611       831.59       615.38
 1612      831.909       616.08
 1613      832.228       615.88
 1614      832.546       614.58
 1615      832.865        613.4
 1616      833.183       612.38
 1617      833.501        611.7
 1618      833.819       611.24
 1619      834.137       611.18
 1620      834.455       611.08
 1621      834.772       610.96
 1622      835.089        611.1
 1623      835.407       612.02
 1624      835.724       612.98
 1625       836.04       613.42
 1626      836.357        613.7
 1627      836.674       614.76
 1628       836.99        616.5
 1629      837.306       618.06
 1630      837.623        620.1
 1631      837.939       622.86
 1632      838.254       624.96
 1633       838.57        625.9
 1634      838.886       627.38
 1635      839.201       628.22
 1636      839.516       628.28
 1637      839.831       628.28
 1638      840.146       627.82
 1639      840.461       626.26
 1640      840.775       624.88
 1641       841.09       623.66
 1642      841.404       621.96
 1643      841.718        619.7
 1644      842.032       617.28
 1645      842.346       615.22
 1646      842.659       613.24
 1647      842.973       611.62
 1648      843.286          611
 1649      843.599       611.06
 1650      843.912       610.76
 1651      844.225       609.94
 1652      844.538          609
 1653      844.851       607.88
 1654      845.163       607.36
 1655      845.475       607.78
 1656      845.787        609.1
 1657      846.099       610.32
 1658      846.411       611.46
 1659      846.723       611.54
 1660      847.034        610.7
 1661      847.345       610.08
 1662      847.657       609.92
 1663      847.968       609.98
 1664      848.278       610.74
 1665      848.589       611.34
 1666        848.9       610.82
 1667       849.21       609.96
 1668       849.52       609.16
 1669       849.83       608.28
 1670       850.14       608.08
 1671       850.45       608.64
 1672      850.759       609.06
 1673      851.069        609.4
 1674      851.378       609.98
 1675      851.687       610.48
 1676      851.996       610.36
 1677      852.305       610.02
 1678      852.614       609.52
 1679      852.922       608.62
 1680       853.23       608.02
 1681      853.539        608.2
 1682      853.847       608.64
 1683      854.154        608.8
 1684      854.462       609.18
 1685       854.77        609.3
 1686      855.077       608.88
 1687      855.384       608.64
 1688      855.691       608.64
 1689      855.998       608.14
 1690      856.305       607.48
 1691      856.612       607.48
 1692      856.918       607.76
 1693      857.224       608.16
 1694       857.53       608.58
 1695      857.836       608.82
 1696      858.142          609
 1697      858.448       608.86
 1698      858.753       607.98
 1699      859.059       607.26
 1700      859.364       607.14
 1701      859.669       606.66
 1702      859.974        606.3
 1703      860.278       606.86
 1704      860.583       607.72
 1705      860.887       608.22
 1706      861.192       608.58
 1707      861.496       608.44
 1708        861.8        608.3
 1709      862.103       608.36
 1710      862.407       608.48
 1711       862.71       608.54
 1712      863.014       608.72
 1713      863.317       608.78
 1714       863.62       608.24
 1715      863.922       607.28
 1716      864.225       606.24
 1717      864.527       605.34
 1718       864.83       604.92
 1719      865.132       605.36
 1720      865.434       606.16
 1721      865.736       607.26
 1722      866.037       608.82
 1723      866.339       609.64
 1724       866.64       609.42
 1725      866.941        608.6
 1726      867.242       607.88
 1727      867.543       606.64
 1728      867.844       605.62
 1729      868.145       605.34
 1730      868.445        605.6
 1731      868.745       606.16
 1732      869.045       607.42
 1733      869.345       608.68
 1734      869.645       609.22
 1735      869.944       609.52
 1736      870.244       609.46
 1737      870.543       609.04
 1738      870.842       608.86
 1739      871.141          609
 1740       871.44       609.46
 1741      871.739       609.86
 1742      872.037       609.84
 1743      872.335       609.86
 1744      872.634       610.18
 1745      872.931       610.48
 1746      873.229       610.44
 1747      873.527       610.08
 1748      873.824       609.56
 1749      874.122       608.96
 1750      874.419       608.26
 1751      874.716       607.68
 1752      875.013       607.42
 1753      875.309       606.92
 1754      875.606       606.46
 1755      875.902       606.16
 1756      876.199       605.58
 1757      876.495       605.42
 1758       876.79       605.58
 1759      877.086       605.54
 1760      877.382        605.1
 1761      877.677       604.66
 1762      877.972        604.6
 1763      878.267       604.48
 1764      878.562       603.84
 1765      878.857       603.58
 1766      879.152        604.1
 1767      879.446        604.5
 1768       879.74       604.88
 1769      880.034       605.82
 1770      880.328       606.58
 1771      880.622       606.36
 1772      880.916       605.82
 1773      881.209        605.3
 1774      881.502       604.88
 1775      881.795       604.58
 1776      882.088       604.14
 1777      882.381        603.6
 1778      882.674       603.36
 1779      882.966        602.9
 1780      883.258       602.56
 1781      883.551       602.82
 1782      883.843        603.3
 1783      884.134       603.46
 1784      884.426       604.02
 1785      884.717        604.4
 1786      885.009       604.76
 1787        885.3       605.28
 1788      885.591        605.8
 1789      885.882        606.3
 1790      886.172       606.98
 1791      886.463       607.48
 1792      886.753       607.38
 1793      887.043       606.94
 1794      887.333       605.84
 1795      887.623       604.32
 1796      887.913       603.58
 1797      888.202       603.46
 1798      888.492       603.64
 1799      888.781       604.38
 1800       889.07        605.2
 1801      889.359       605.34
 1802      889.647       605.24
 1803      889.936       604.92
 1804      890.224       604.38
 1805      890.512       604.18
 1806        890.8       604.22
 1807      891.088       604.22
 1808      891.376        604.6
 1809      891.663       604.98
 1810      891.951       605.16
 1811      892.238       605.56
 1812      892.525       605.84
 1813      892.812        605.9
 1814      893.099       606.32
 1815      893.385       606.72
 1816      893.671       606.58
 1817      893.958       605.98
 1818      894.244       605.24
 1819       894.53        604.1
 1820      894.815       603.12
 1821      895.101       602.54
 1822      895.386       602.42
 1823      895.671       602.78
 1824      895.956       603.66
 1825      896.241       604.34
 1826      896.526       604.72
 1827       896.81       605.26
 1828      897.095       605.64
 1829      897.379        605.5
 1830      897.663       605.66
 1831      897.947       606.46
 1832      898.231       606.88
 1833      898.514       606.68
 1834      898.798       606.32
 1835      899.081       605.82
 1836      899.364       604.96
 1837      899.647       604.54
 1838      899.929        604.7
 1839      900.212       605.36
 1840      900.494       605.92
 1841      900.776        606.2
 1842      901.058       606.42
 1843       901.34       606.38
 1844      901.622       606.08
 1845      901.904       605.96
 1846      902.185        606.2
 1847      902.466       606.26
 1848      902.747       606.34
 1849      903.028       606.56
 1850      903.309       606.58
 1851      903.589       605.92
 1852       903.87       605.14
 1853       904.15       604.84
 1854       904.43       604.44
 1855       904.71       603.96
 1856      904.989       604.12
 1857      905.269       604.48
 1858      905.548       604.46
 1859      905.827       604.78
 1860      906.106        605.9
 1861      906.385       606.68
 1862      906.664          607
 1863      906.942       607.28
 1864      907.221       607.06
 1865      907.499        606.3
 1866      907.777       605.58
 1867      908.055       604.92
 1868      908.332          604
 1869       908.61       603.54
 1870      908.887        603.5
 1871      909.164       603.74
 1872      909.441       604.34
 1873      909.718       604.78
 1874      909.995       604.36
 1875      910.271       603.72
 1876      910.548       603.62
 1877      910.824       603.48
 1878        911.1       603.66
 1879      911.375       604.18
 1880      911.651       604.42
 1881      911.927       603.98
 1882      912.202        603.4
 1883      912.477        602.8
 1884      912.752       602.48
 1885      913.027        601.8
 1886      913.301       601.18
 1887      913.576       601.02
 1888       913.85        601.2
 1889      914.124       601.84
 1890      914.398        602.9
 1891      914.672       603.84
 1892      914.945       604.52
 1893      915.219       605.04
 1894      915.492       605.12
 1895      915.765       605.26
 1896      916.038       605.32
 1897      916.311       605.36
 1898      916.583       605.36
 1899      916.856       605.04
 1900      917.128       604.88
 1901        917.4        605.3
 1902      917.672       605.08
 1903      917.944        604.9
 1904      918.215       605.22
 1905      918.486       605.02
 1906      918.758       604.48
 1907      919.029       604.52
 1908      919.299       604.44
 1909       919.57        604.4
 1910      919.841       604.48
 1911      920.111        604.2
 1912      920.381       603.82
 1913      920.651        603.7
 1914      920.921       603.22
 1915      921.191       602.92
 1916       921.46       603.14
 1917      921.729       603.48
 1918      921.999       603.96
 1919      922.268       604.72
 1920      922.536       605.56
 1921      922.805       606.62
 1922      923.073       607.64
 1923      923.342       608.02
 1924       923.61        607.9
 1925      923.878       607.76
 1926      924.145       606.94
 1927      924.413       605.76
 1928       924.68       604.88
 1929      924.948       604.96
 1930      925.215       605.38
 1931      925.482       606.02
 1932      925.748       606.86
 1933      926.015       607.44
 1934      926.281       607.36
 1935      926.547        606.8
 1936      926.813       606.14
 1937      927.079          606
 1938      927.345       606.34
 1939       927.61        606.5
 1940      927.876       606.34
 1941      928.141       606.14
 1942      928.406       605.64
 1943      928.671       604.92
 1944      928.935       604.14
 1945        929.2       603.76
 1946      929.464        603.7
 1947      929.728       604.08
 1948      929.992       604.54
 1949      930.256       605.16
 1950       930.52       605.96
 1951      930.783       606.46
 1952      931.046       606.38
 1953      931.309       605.96
 1954      931.572       605.72
 1955      931.835       605.22
 1956      932.097          605
 1957       932.36       604.72
 1958      932.622       604.34
 1959      932.884       603.82
 1960      933.146        603.7
 1961      933.408       603.44
 1962      933.669       602.82
 1963       933.93       602.48
 1964      934.192        602.4
 1965      934.453       602.28
 1966      934.713       602.52
 1967      934.974       603.62
 1968      935.234       604.36
 1969      935.495       604.54
 1970      935.755       604.36
 1971      936.015        603.5
 1972      936.274       602.88
 1973      936.534       603.22
 1974      936.793       603.78
 1975      937.053       604.18
 1976      937.312       604.58
 1977      937.571       604.78
 1978      937.829       605.02
 1979      938.088       605.22
 1980      938.346       605.34
 1981      938.604       605.72
 1982      938.862       605.92
 1983       939.12       605.62
 1984      939.378       605.26
 1985      939.635       605.48
 1986      939.893       606.02
 1987       940.15          606
 1988      940.407       605.98
 1989      940.663       606.24
 1990       940.92        605.9
 1991      941.176       605.34
 1992      941.433       604.82
 1993      941.689          604
 1994      941.944       603.58
 1995        942.2       603.58
 1996      942.456       603.38
 1997      942.711       603.46
 1998      942.966       604.08
 1999      943.221       604.48
 2000      943.476        604.9
 2001      943.731       605.38
 2002      943.985        605.4
 2003      944.239       605.14
 2004      944.493       604.88
 2005      944.747       604.52
 2006      945.001        604.3
 2007      945.255       604.48
 2008      945.508       604.38
 2009      945.761       604.48
 2010      946.014       604.88
 2011      946.267       604.78
 2012       946.52       604.32
 2013      946.772       604.46
 2014      947.025       604.08
 2015      947.277       603.04
 2016      947.529       602.58
 2017      947.781       602.84
 2018      948.032       603.16
 2019      948.284       603.62
 2020      948.535       604.46
 2021      948.786       604.68
 2022      949.037       604.74
 2023      949.288       604.68
 2024      949.538       604.42
 2025      949.789       604.02
 2026      950.039        604.2
 2027      950.289       604.58
 2028      950.539       605.04
 2029      950.788       605.66
 2030      951.038       606.36
 2031      951.287       606.94
 2032      951.536       606.78
 2033      951.785       606.02
 2034      952.034       605.66
 2035      952.282        605.9
 2036      952.531          606
 2037      952.779       606.22
 2038      953.027       606.78
 2039      953.275       606.78
 2040      953.523        605.7
 2041       953.77       604.88
 2042      954.017       604.96
 2043      954.264       605.46
 2044      954.511       605.94
 2045      954.758        606.5
 2046      955.005      607.275
 2047      955.251      607.567
