scansci Spectrometer Data File
--- Measurement Setting ---
Type: Sample Spectrum
Date: Mon Oct 16 15:06:50 2023
User: (Reserved by scansci)
Serial: (Reserved by scansci)
Channel: No. 11
Integration Time: 1
Average: 10
Boxcar: 2
Electrical Dark: No-corrected
Time Normalize: (Reserved by scansci)
Dual-beam: (Reserved by scansci)
Reference Ch: (Reserved by scansci)
--- Measurement Data ---
Pixel   Wavelength   Intensity
    0        344.4          600
    1      344.867      599.625
    2      345.334        599.1
    3      345.801       599.12
    4      346.268       599.22
    5      346.735       599.08
    6      347.202       599.02
    7      347.669       599.38
    8      348.135       599.52
    9      348.602       599.28
   10      349.068       599.54
   11      349.535       600.24
   12      350.001        600.8
   13      350.467        601.2
   14      350.933       601.58
   15      351.399       602.04
   16      351.866       602.44
   17      352.331       602.98
   18      352.797       603.16
   19      353.263       602.62
   20      353.729       601.64
   21      354.194       600.48
   22       354.66       599.12
   23      355.126       598.28
   24      355.591       598.14
   25      356.056       598.06
   26      356.522       598.46
   27      356.987       598.86
   28      357.452       598.78
   29      357.917       598.64
   30      358.382       598.74
   31      358.847       598.54
   32      359.312       598.34
   33      359.776        598.8
   34      360.241       599.18
   35      360.706       599.24
   36       361.17        599.2
   37      361.634        599.1
   38      362.099       598.48
   39      362.563       597.52
   40      363.027        596.9
   41      363.491       596.24
   42      363.955       595.74
   43      364.419        595.8
   44      364.883       596.14
   45      365.347        596.4
   46      365.811       596.84
   47      366.274       597.52
   48      366.738       597.84
   49      367.201       598.14
   50      367.665       598.74
   51      368.128        599.1
   52      368.592       598.74
   53      369.055       598.46
   54      369.518       598.24
   55      369.981       597.62
   56      370.444       597.66
   57      370.907       598.42
   58       371.37       599.02
   59      371.832       599.26
   60      372.295        599.3
   61      372.757       598.78
   62       373.22       597.98
   63      373.682       597.88
   64      374.145       598.38
   65      374.607       598.78
   66      375.069       599.02
   67      375.531        599.7
   68      375.993       599.92
   69      376.455        599.7
   70      376.917       599.38
   71      377.379        599.3
   72      377.841          599
   73      378.302       598.66
   74      378.764        598.4
   75      379.225        598.4
   76      379.687       598.48
   77      380.148       598.34
   78      380.609       598.38
   79      381.071        598.5
   80      381.532       598.36
   81      381.993       597.98
   82      382.454       597.58
   83      382.915       596.62
   84      383.375       595.72
   85      383.836       595.46
   86      384.297       595.18
   87      384.757       594.84
   88      385.218       595.26
   89      385.678       595.88
   90      386.138        596.1
   91      386.599       596.16
   92      387.059       596.48
   93      387.519       596.34
   94      387.979       596.28
   95      388.439       596.44
   96      388.899       596.64
   97      389.358       596.72
   98      389.818       596.64
   99      390.278       596.14
  100      390.737       595.76
  101      391.197       595.62
  102      391.656        595.6
  103      392.115       596.12
  104      392.575       596.84
  105      393.034        597.6
  106      393.493       598.52
  107      393.952       599.42
  108      394.411       599.82
  109       394.87       599.84
  110      395.328       599.46
  111      395.787        599.3
  112      396.246       598.82
  113      396.704       598.02
  114      397.163       597.78
  115      397.621       597.88
  116      398.079       597.66
  117      398.537       597.72
  118      398.995        598.4
  119      399.454        598.8
  120      399.911       598.48
  121      400.369        597.7
  122      400.827       596.68
  123      401.285       595.62
  124      401.743       594.62
  125        402.2       593.88
  126      402.658       593.64
  127      403.115       593.94
  128      403.572       594.34
  129       404.03       594.36
  130      404.487       594.18
  131      404.944       594.14
  132      405.401          594
  133      405.858       593.48
  134      406.315        593.5
  135      406.771       594.38
  136      407.228          595
  137      407.685       595.34
  138      408.141       596.02
  139      408.598        596.8
  140      409.054       597.42
  141       409.51       597.94
  142      409.967       598.18
  143      410.423       598.08
  144      410.879        597.6
  145      411.335       596.94
  146      411.791       596.84
  147      412.246       597.12
  148      412.702       597.24
  149      413.158       597.62
  150      413.613       598.38
  151      414.069       599.22
  152      414.524        599.9
  153       414.98       601.04
  154      415.435       601.62
  155       415.89       601.38
  156      416.345       600.86
  157        416.8       600.12
  158      417.255       599.02
  159       417.71        598.5
  160      418.165       598.42
  161      418.619       597.94
  162      419.074       597.74
  163      419.529       597.72
  164      419.983       597.92
  165      420.437       598.28
  166      420.892        598.7
  167      421.346       599.06
  168        421.8       599.38
  169      422.254       598.94
  170      422.708       598.16
  171      423.162        597.8
  172      423.616       597.62
  173       424.07       597.76
  174      424.523       598.42
  175      424.977        598.9
  176       425.43       599.14
  177      425.884        599.4
  178      426.337       599.48
  179       426.79       599.24
  180      427.243       599.36
  181      427.697        599.5
  182       428.15       599.38
  183      428.602       599.16
  184      429.055       599.18
  185      429.508       599.48
  186      429.961       599.38
  187      430.413       599.08
  188      430.866       599.04
  189      431.318       599.12
  190      431.771       598.88
  191      432.223       599.08
  192      432.675       599.96
  193      433.127        600.7
  194      433.579        601.1
  195      434.031       600.52
  196      434.483       599.44
  197      434.935        598.3
  198      435.387        597.5
  199      435.838       596.98
  200       436.29       597.42
  201      436.741       598.24
  202      437.193       598.66
  203      437.644       598.98
  204      438.095       599.06
  205      438.546       599.18
  206      438.997       599.46
  207      439.448       599.82
  208      439.899        599.3
  209       440.35       598.68
  210      440.801        598.1
  211      441.251       598.06
  212      441.702        598.7
  213      442.152       599.72
  214      442.603       600.66
  215      443.053       601.66
  216      443.503       602.18
  217      443.954        601.8
  218      444.404       601.28
  219      444.854       600.46
  220      445.304        598.8
  221      445.753       597.14
  222      446.203       596.36
  223      446.653       596.14
  224      447.102       596.52
  225      447.552       597.44
  226      448.001       598.28
  227      448.451       598.72
  228        448.9       599.14
  229      449.349       599.84
  230      449.798       600.76
  231      450.247       601.04
  232      450.696       600.52
  233      451.145       599.66
  234      451.594       598.78
  235      452.042       598.16
  236      452.491        597.8
  237      452.939       598.12
  238      453.388       598.76
  239      453.836       599.22
  240      454.285       599.26
  241      454.733        599.4
  242      455.181       599.34
  243      455.629       599.04
  244      456.077        598.4
  245      456.525       598.06
  246      456.972        598.3
  247       457.42        598.4
  248      457.868       598.46
  249      458.315        598.7
  250      458.763        598.9
  251       459.21        598.8
  252      459.657       598.84
  253      460.104       599.08
  254      460.552       599.24
  255      460.999       599.12
  256      461.446       599.08
  257      461.892       599.04
  258      462.339        598.7
  259      462.786       598.34
  260      463.233       598.62
  261      463.679       598.16
  262      464.125       596.96
  263      464.572        596.2
  264      465.018       595.62
  265      465.464       594.76
  266       465.91       594.88
  267      466.356       596.02
  268      466.802       597.04
  269      467.248       597.68
  270      467.694       597.76
  271       468.14       597.78
  272      468.585       597.56
  273      469.031       597.02
  274      469.476       596.78
  275      469.922        597.2
  276      470.367       597.56
  277      470.812        597.9
  278      471.257        598.2
  279      471.702       598.44
  280      472.147       598.64
  281      472.592       598.18
  282      473.037       597.38
  283      473.482       596.58
  284      473.926       595.94
  285      474.371       595.28
  286      474.815       595.02
  287      475.259       595.22
  288      475.704        596.1
  289      476.148        597.1
  290      476.592       597.78
  291      477.036       598.46
  292       477.48        599.2
  293      477.924       599.36
  294      478.368       599.22
  295      478.811       599.02
  296      479.255       598.84
  297      479.698       598.72
  298      480.142       598.86
  299      480.585       598.66
  300      481.028       598.64
  301      481.472       598.68
  302      481.915       598.46
  303      482.358       598.36
  304      482.801        598.7
  305      483.244       598.88
  306      483.686       598.82
  307      484.129       598.58
  308      484.572       598.14
  309      485.014        598.1
  310      485.456       597.94
  311      485.899       597.76
  312      486.341       598.08
  313      486.783        598.4
  314      487.225       598.06
  315      487.667        598.1
  316      488.109       598.12
  317      488.551       597.82
  318      488.993       597.68
  319      489.434       597.88
  320      489.876       597.98
  321      490.318        598.1
  322      490.759       598.28
  323        491.2       598.56
  324      491.641          599
  325      492.083       599.22
  326      492.524       599.52
  327      492.965       599.76
  328      493.406       599.64
  329      493.846       599.42
  330      494.287       599.16
  331      494.728       598.72
  332      495.168        598.5
  333      495.609       598.46
  334      496.049       598.12
  335      496.489       597.96
  336       496.93        598.4
  337       497.37        598.7
  338       497.81        598.9
  339       498.25       599.42
  340       498.69       599.68
  341      499.129       599.28
  342      499.569       598.74
  343      500.009       598.14
  344      500.448       597.48
  345      500.888       597.22
  346      501.327       597.36
  347      501.766       597.74
  348      502.206        597.9
  349      502.645        597.7
  350      503.084       597.46
  351      503.523       597.48
  352      503.961        597.3
  353        504.4       597.64
  354      504.839       598.58
  355      505.277       599.46
  356      505.716       599.82
  357      506.154        599.8
  358      506.593       599.44
  359      507.031       598.64
  360      507.469       597.64
  361      507.907       596.94
  362      508.345       596.98
  363      508.783        597.2
  364      509.221       597.32
  365      509.659       597.42
  366      510.096       597.56
  367      510.534       597.56
  368      510.971       597.08
  369      511.409       596.66
  370      511.846       596.24
  371      512.283       595.68
  372       512.72       595.56
  373      513.157       595.88
  374      513.594       596.32
  375      514.031       597.12
  376      514.468       597.94
  377      514.905       597.66
  378      515.341       597.24
  379      515.778       597.22
  380      516.214       597.32
  381       516.65       597.76
  382      517.087       598.62
  383      517.523       599.46
  384      517.959       600.04
  385      518.395       600.14
  386      518.831       599.76
  387      519.267       599.34
  388      519.702       599.06
  389      520.138       598.74
  390      520.574       598.42
  391      521.009        598.3
  392      521.444       598.64
  393       521.88       599.06
  394      522.315       599.06
  395       522.75       598.78
  396      523.185       597.76
  397       523.62        596.3
  398      524.055       595.02
  399       524.49       594.24
  400      524.924       594.58
  401      525.359       596.06
  402      525.794        597.8
  403      526.228       599.06
  404      526.662       600.24
  405      527.097       600.64
  406      527.531       600.16
  407      527.965        599.3
  408      528.399        598.6
  409      528.833       598.16
  410      529.267       597.78
  411        529.7       597.74
  412      530.134       597.54
  413      530.568       596.96
  414      531.001          596
  415      531.434       595.46
  416      531.868       595.32
  417      532.301       595.56
  418      532.734       596.04
  419      533.167       596.78
  420        533.6       597.06
  421      534.033          597
  422      534.466        597.4
  423      534.898        598.2
  424      535.331       598.44
  425      535.763       598.42
  426      536.196        598.5
  427      536.628       598.42
  428       537.06       598.56
  429      537.493       599.24
  430      537.925       600.54
  431      538.357       601.56
  432      538.788       602.08
  433       539.22       602.04
  434      539.652       601.82
  435      540.084        601.2
  436      540.515       600.46
  437      540.947       599.98
  438      541.378       599.34
  439      541.809        598.7
  440       542.24       598.38
  441      542.672       598.36
  442      543.103       598.22
  443      543.533       598.48
  444      543.964       598.88
  445      544.395       599.02
  446      544.826        599.2
  447      545.256       599.48
  448      545.687        599.8
  449      546.117        600.2
  450      546.547       600.76
  451      546.978        600.8
  452      547.408       600.56
  453      547.838       600.34
  454      548.268       599.92
  455      548.698       599.56
  456      549.127       599.76
  457      549.557       600.04
  458      549.987       600.16
  459      550.416       600.06
  460      550.846       599.44
  461      551.275       598.78
  462      551.704       598.26
  463      552.133       597.76
  464      552.562       597.56
  465      552.991       597.88
  466       553.42       597.86
  467      553.849        598.1
  468      554.278       598.52
  469      554.706       598.76
  470      555.135       599.04
  471      555.563       600.04
  472      555.991       601.16
  473       556.42       602.06
  474      556.848       602.68
  475      557.276       602.94
  476      557.704        603.2
  477      558.132        603.4
  478       558.56        603.7
  479      558.987       604.26
  480      559.415       604.68
  481      559.843       604.22
  482       560.27       604.04
  483      560.697       604.34
  484      561.125        604.4
  485      561.552       604.66
  486      561.979       605.08
  487      562.406       604.68
  488      562.833       603.98
  489       563.26       604.16
  490      563.686       604.88
  491      564.113       606.08
  492       564.54       607.48
  493      564.966       608.58
  494      565.392       609.44
  495      565.819        610.3
  496      566.245        611.3
  497      566.671       613.84
  498      567.097       620.28
  499      567.523          632
  500      567.949       648.32
  501      568.374       666.06
  502        568.8       679.84
  503      569.226       685.96
  504      569.651       683.48
  505      570.077       673.36
  506      570.502       660.02
  507      570.927       648.52
  508      571.352       640.62
  509      571.777       635.48
  510      572.202        632.5
  511      572.627        630.9
  512      573.052       629.98
  513      573.476       630.08
  514      573.901       631.56
  515      574.325        634.3
  516       574.75       637.66
  517      575.174       641.86
  518      575.598          646
  519      576.022        649.6
  520      576.446       652.68
  521       576.87          656
  522      577.294       659.34
  523      577.718       662.76
  524      578.142        666.3
  525      578.565        669.8
  526      578.989        672.8
  527      579.412       675.08
  528      579.835       676.92
  529      580.259       680.34
  530      580.682       687.42
  531      581.105        699.2
  532      581.528       717.14
  533      581.951       743.14
  534      582.373        778.2
  535      582.796       822.14
  536      583.219       873.72
  537      583.641        931.2
  538      584.063       990.54
  539      584.486       1045.9
  540      584.908      1094.18
  541       585.33      1135.16
  542      585.752      1169.32
  543      586.174      1203.42
  544      586.596      1275.18
  545      587.018      1569.24
  546      587.439      2541.58
  547      587.861      4697.28
  548      588.282      7718.42
  549      588.704      10694.6
  550      589.125      13442.7
  551      589.546      15507.2
  552      589.967      16376.5
  553      590.388      15469.4
  554      590.809      13737.7
  555       591.23      11481.5
  556      591.651       8899.4
  557      592.071      6120.62
  558      592.492      4115.74
  559      592.912      2857.58
  560      593.333      2077.24
  561      593.753      1594.52
  562      594.173      1296.46
  563      594.593         1112
  564      595.013       996.16
  565      595.433       919.46
  566      595.853       864.92
  567      596.273          824
  568      596.693       792.54
  569      597.112       767.66
  570      597.532       747.86
  571      597.951       732.06
  572       598.37       719.32
  573      598.789       708.42
  574      599.208       698.14
  575      599.627       688.74
  576      600.046       680.32
  577      600.465       672.58
  578      600.884       665.42
  579      601.303        659.5
  580      601.721       654.46
  581      602.139       649.66
  582      602.558       645.16
  583      602.976        641.1
  584      603.394       637.44
  585      603.812       633.86
  586       604.23       630.74
  587      604.648       628.34
  588      605.066       626.18
  589      605.484       624.06
  590      605.901       621.94
  591      606.319       620.12
  592      606.736       618.42
  593      607.154       616.92
  594      607.571       615.26
  595      607.988       613.72
  596      608.405        612.4
  597      608.822       611.26
  598      609.239        609.9
  599      609.656       608.94
  600      610.072       608.58
  601      610.489       608.14
  602      610.905       607.54
  603      611.322        607.3
  604      611.738       607.18
  605      612.154       606.96
  606       612.57       606.92
  607      612.986       607.12
  608      613.402       607.74
  609      613.818       608.52
  610      614.234       610.08
  611       614.65       613.28
  612      615.065       618.28
  613      615.481          624
  614      615.896       629.34
  615      616.311       632.52
  616      616.727       632.02
  617      617.142        628.3
  618      617.557       623.38
  619      617.972       618.34
  620      618.386       614.02
  621      618.801          611
  622      619.216       608.84
  623       619.63       607.06
  624      620.045        605.4
  625      620.459       604.02
  626      620.873       603.16
  627      621.287       602.56
  628      621.702       601.98
  629      622.116       601.86
  630      622.529       602.24
  631      622.943       602.48
  632      623.357       602.74
  633      623.771       602.66
  634      624.184       602.28
  635      624.597       601.62
  636      625.011       600.76
  637      625.424       599.58
  638      625.837       598.54
  639       626.25        597.9
  640      626.663        597.3
  641      627.076       597.28
  642      627.489        598.1
  643      627.901       598.88
  644      628.314        599.4
  645      628.726          600
  646      629.139       600.14
  647      629.551       599.98
  648      629.963       600.24
  649      630.375       600.02
  650      630.787       599.32
  651      631.199       598.98
  652      631.611        598.7
  653      632.023        598.1
  654      632.434        598.2
  655      632.846       598.88
  656      633.257       599.82
  657      633.669       600.78
  658       634.08       601.74
  659      634.491        602.6
  660      634.902       602.78
  661      635.313       602.24
  662      635.724       601.26
  663      636.135       600.02
  664      636.545       598.82
  665      636.956       598.64
  666      637.366       599.24
  667      637.777       600.26
  668      638.187        601.6
  669      638.597       602.22
  670      639.007       601.56
  671      639.417       600.56
  672      639.827       599.58
  673      640.237       598.26
  674      640.647       597.34
  675      641.056        597.5
  676      641.466          598
  677      641.875       598.42
  678      642.285       598.68
  679      642.694       599.16
  680      643.103        599.6
  681      643.512       599.46
  682      643.921       599.14
  683       644.33       599.22
  684      644.739        598.9
  685      645.148       598.22
  686      645.556       597.56
  687      645.965       596.58
  688      646.373        595.5
  689      646.781       595.02
  690      647.189       595.22
  691      647.598       595.98
  692      648.006       597.08
  693      648.414       598.26
  694      648.821       599.18
  695      649.229       599.36
  696      649.637       599.22
  697      650.044       598.98
  698      650.452       598.18
  699      650.859          597
  700      651.266       596.48
  701      651.673       596.42
  702       652.08       596.28
  703      652.487        596.8
  704      652.894       597.84
  705      653.301       598.48
  706      653.708       598.66
  707      654.114       599.14
  708      654.521       599.28
  709      654.927       598.98
  710      655.333        598.1
  711       655.74       597.06
  712      656.146       596.34
  713      656.552       596.16
  714      656.958       596.52
  715      657.363        597.8
  716      657.769       599.32
  717      658.175       600.38
  718       658.58       601.26
  719      658.986       601.88
  720      659.391       602.16
  721      659.796       602.14
  722      660.201       602.04
  723      660.606       601.78
  724      661.011        601.4
  725      661.416       600.74
  726      661.821       599.88
  727      662.225       598.98
  728       662.63       598.28
  729      663.034       597.96
  730      663.439       598.16
  731      663.843       598.98
  732      664.247       600.48
  733      664.651       601.86
  734      665.055       602.78
  735      665.459       603.38
  736      665.863       603.34
  737      666.267       602.04
  738       666.67       600.56
  739      667.074       599.62
  740      667.477       598.74
  741       667.88       598.12
  742      668.283       598.08
  743      668.687       598.68
  744       669.09       599.06
  745      669.492       599.04
  746      669.895       599.04
  747      670.298       599.04
  748      670.701        598.5
  749      671.103       597.66
  750      671.505        597.3
  751      671.908       597.32
  752       672.31       597.44
  753      672.712       597.68
  754      673.114        598.1
  755      673.516       598.34
  756      673.918       598.64
  757       674.32       599.12
  758      674.721       599.94
  759      675.123       600.52
  760      675.524       600.84
  761      675.926       600.76
  762      676.327       600.16
  763      676.728       599.12
  764      677.129        598.1
  765       677.53       597.14
  766      677.931       596.26
  767      678.332       595.86
  768      678.732       596.02
  769      679.133        596.8
  770      679.533        597.8
  771      679.934        598.7
  772      680.334       599.32
  773      680.734       599.24
  774      681.134       598.46
  775      681.534       597.36
  776      681.934       596.22
  777      682.334       595.42
  778      682.733       595.48
  779      683.133       595.98
  780      683.532        597.2
  781      683.932          599
  782      684.331       600.56
  783       684.73       601.12
  784      685.129       601.78
  785      685.528       601.72
  786      685.927       600.94
  787      686.326       600.08
  788      686.725       599.98
  789      687.123       599.92
  790      687.522       599.98
  791       687.92       600.22
  792      688.319       600.64
  793      688.717       600.24
  794      689.115       599.34
  795      689.513          599
  796      689.911       598.74
  797      690.309       598.92
  798      690.706       599.74
  799      691.104       600.88
  800      691.501       601.72
  801      691.899       602.52
  802      692.296       602.66
  803      692.693       602.36
  804       693.09        601.9
  805      693.488       601.64
  806      693.884        601.8
  807      694.281       602.52
  808      694.678       603.74
  809      695.075       606.26
  810      695.471       610.08
  811      695.868       614.46
  812      696.264        619.1
  813       696.66       623.72
  814      697.056        625.8
  815      697.452        624.3
  816      697.848       621.32
  817      698.244       617.14
  818       698.64       611.68
  819      699.035       607.26
  820      699.431       605.12
  821      699.826       603.54
  822      700.222       602.08
  823      700.617       601.16
  824      701.012        600.2
  825      701.407       598.68
  826      701.802       596.86
  827      702.197       595.32
  828      702.592        594.5
  829      702.986       594.46
  830      703.381       595.22
  831      703.775       596.98
  832       704.17       599.26
  833      704.564       601.32
  834      704.958       603.42
  835      705.352        605.7
  836      705.746       607.94
  837       706.14       610.68
  838      706.533       613.68
  839      706.927       615.42
  840      707.321       615.22
  841      707.714       613.02
  842      708.107       609.42
  843      708.501       605.58
  844      708.894       602.36
  845      709.287        599.9
  846       709.68       598.92
  847      710.073        598.6
  848      710.465        598.1
  849      710.858       597.66
  850      711.251       597.42
  851      711.643       596.84
  852      712.035       596.04
  853      712.428        595.6
  854       712.82       595.56
  855      713.212       596.44
  856      713.604       597.96
  857      713.995        599.4
  858      714.387       600.42
  859      714.779       601.22
  860       715.17       601.44
  861      715.562       600.92
  862      715.953          600
  863      716.344       599.42
  864      716.735       599.06
  865      717.127       598.34
  866      717.517       597.76
  867      717.908       598.18
  868      718.299       598.26
  869       718.69        597.9
  870       719.08       598.02
  871      719.471       598.12
  872      719.861       597.22
  873      720.251       596.04
  874      720.641        594.9
  875      721.031       594.02
  876      721.421       593.74
  877      721.811       594.24
  878      722.201       595.46
  879       722.59       596.82
  880       722.98       597.96
  881      723.369        598.6
  882      723.759       598.88
  883      724.148       598.86
  884      724.537       598.58
  885      724.926       597.94
  886      725.315        597.8
  887      725.704       598.12
  888      726.092       598.82
  889      726.481       599.98
  890       726.87       601.44
  891      727.258       602.34
  892      727.646       602.74
  893      728.034       602.84
  894      728.423       602.76
  895      728.811       602.48
  896      729.198        602.2
  897      729.586       602.04
  898      729.974        601.5
  899      730.362        600.7
  900      730.749       599.78
  901      731.136       599.12
  902      731.524       598.82
  903      731.911       598.38
  904      732.298       597.82
  905      732.685        597.5
  906      733.072       597.54
  907      733.459       597.38
  908      733.845       597.36
  909      734.232       597.74
  910      734.618       598.22
  911      735.005       598.62
  912      735.391       599.36
  913      735.777        600.4
  914      736.163       601.64
  915      736.549       603.42
  916      736.935       605.42
  917      737.321       608.32
  918      737.706       613.36
  919      738.092       619.42
  920      738.477       625.08
  921      738.863       628.92
  922      739.248        629.1
  923      739.633       625.52
  924      740.018       619.92
  925      740.403       613.48
  926      740.788       607.88
  927      741.173       604.18
  928      741.557        601.8
  929      741.942        600.1
  930      742.326       599.36
  931      742.711       599.44
  932      743.095        599.9
  933      743.479       600.54
  934      743.863       600.94
  935      744.247       601.02
  936      744.631       600.94
  937      745.015       600.88
  938      745.398       600.38
  939      745.782       600.62
  940      746.165       601.38
  941      746.548       601.84
  942      746.932       602.56
  943      747.315       604.04
  944      747.698       604.96
  945      748.081       605.46
  946      748.463       606.72
  947      748.846          609
  948      749.229       612.58
  949      749.611       618.68
  950      749.993       627.28
  951      750.376       636.76
  952      750.758       645.52
  953       751.14       651.82
  954      751.522        654.3
  955      751.904        652.3
  956      752.285        646.4
  957      752.667       638.46
  958      753.049       630.72
  959       753.43       623.92
  960      753.811       618.38
  961      754.193       614.78
  962      754.574       612.64
  963      754.955       610.86
  964      755.336       608.98
  965      755.717       607.62
  966      756.097       606.54
  967      756.478       605.66
  968      756.858       605.32
  969      757.239       605.72
  970      757.619        606.3
  971      757.999       607.08
  972      758.379        608.2
  973      758.759       609.36
  974      759.139       610.16
  975      759.519       611.18
  976      759.899       612.54
  977      760.278       613.46
  978      760.658       614.82
  979      761.037       617.38
  980      761.417       621.38
  981      761.796        628.8
  982      762.175       642.66
  983      762.554       663.36
  984      762.933        689.3
  985      763.311       717.68
  986       763.69       744.78
  987      764.068       764.84
  988      764.447       782.06
  989      764.825       815.46
  990      765.203       881.98
  991      765.582       994.02
  992       765.96      1155.18
  993      766.338      1345.82
  994      766.715      1515.56
  995      767.093      1596.16
  996      767.471      1564.72
  997      767.848      1453.32
  998      768.226      1306.72
  999      768.603         1180
 1000       768.98      1142.08
 1001      769.357      1208.66
 1002      769.734      1337.18
 1003      770.111      1471.22
 1004      770.488      1537.04
 1005      770.864      1501.46
 1006      771.241      1385.22
 1007      771.617      1215.66
 1008      771.994      1029.32
 1009       772.37       882.56
 1010      772.746       794.16
 1011      773.122        739.9
 1012      773.498       703.96
 1013      773.874       677.42
 1014       774.25        656.1
 1015      774.625       639.34
 1016      775.001       627.64
 1017      775.376       619.84
 1018      775.751        614.7
 1019      776.127       611.26
 1020      776.502       609.08
 1021      776.877       607.66
 1022      777.252       606.94
 1023      777.626       606.68
 1024      778.001       606.22
 1025      778.375        605.6
 1026       778.75       605.02
 1027      779.124       604.06
 1028      779.499       602.68
 1029      779.873       601.74
 1030      780.247       601.06
 1031      780.621       600.38
 1032      780.994       600.08
 1033      781.368        600.5
 1034      781.742       600.54
 1035      782.115       600.22
 1036      782.489        599.8
 1037      782.862       599.14
 1038      783.235       598.12
 1039      783.608       597.54
 1040      783.981        597.4
 1041      784.354        597.5
 1042      784.727        597.5
 1043        785.1       597.42
 1044      785.472       597.42
 1045      785.845       597.92
 1046      786.217       598.66
 1047      786.589       599.58
 1048      786.961        600.3
 1049      787.333       601.04
 1050      787.705       601.54
 1051      788.077        601.3
 1052      788.449       600.46
 1053       788.82       599.78
 1054      789.192       599.16
 1055      789.563       598.18
 1056      789.934       597.86
 1057      790.306       598.34
 1058      790.677       598.78
 1059      791.048       598.96
 1060      791.419       599.12
 1061      791.789        599.2
 1062       792.16       598.98
 1063       792.53       599.18
 1064      792.901       599.88
 1065      793.271       601.44
 1066      793.641       604.42
 1067      794.012       609.36
 1068      794.382       615.18
 1069      794.751       621.82
 1070      795.121        628.5
 1071      795.491       631.86
 1072      795.861       630.74
 1073       796.23       627.38
 1074      796.599       621.86
 1075      796.969       615.02
 1076      797.338        609.2
 1077      797.707        605.1
 1078      798.076       602.26
 1079      798.445       601.06
 1080      798.813       601.04
 1081      799.182       602.34
 1082       799.55       605.44
 1083      799.919       609.88
 1084      800.287       616.16
 1085      800.655       624.56
 1086      801.023       633.96
 1087      801.391       643.16
 1088      801.759       650.36
 1089      802.127       652.88
 1090      802.495          650
 1091      802.862       643.06
 1092       803.23       633.82
 1093      803.597       624.18
 1094      803.964        615.9
 1095      804.331       609.84
 1096      804.698        606.2
 1097      805.065       603.92
 1098      805.432       602.08
 1099      805.799        600.8
 1100      806.165       600.16
 1101      806.532        599.9
 1102      806.898       600.06
 1103      807.264        601.1
 1104      807.631       602.82
 1105      807.997       604.34
 1106      808.363       605.12
 1107      808.728       606.32
 1108      809.094       609.44
 1109       809.46       615.52
 1110      809.825       625.98
 1111      810.191       643.08
 1112      810.556       667.22
 1113      810.921       695.44
 1114      811.286        723.8
 1115      811.651       751.04
 1116      812.016       769.66
 1117      812.381        770.1
 1118      812.745       754.04
 1119       813.11       728.28
 1120      813.474        695.7
 1121      813.839       663.38
 1122      814.203       640.56
 1123      814.567        627.8
 1124      814.931        621.1
 1125      815.295       617.82
 1126      815.659       616.98
 1127      816.022       617.56
 1128      816.386       619.64
 1129      816.749       626.94
 1130      817.113       644.46
 1131      817.476       676.74
 1132      817.839       729.18
 1133      818.202       806.48
 1134      818.565       907.04
 1135      818.928      1015.12
 1136      819.291      1113.04
 1137      819.653      1193.74
 1138      820.016      1234.18
 1139      820.378       1208.8
 1140       820.74      1131.64
 1141      821.102      1029.14
 1142      821.464       911.42
 1143      821.826       800.58
 1144      822.188          723
 1145       822.55       676.64
 1146      822.912        649.2
 1147      823.273        632.7
 1148      823.634       622.56
 1149      823.996       616.16
 1150      824.357       612.38
 1151      824.718       609.58
 1152      825.079       607.58
 1153       825.44       607.52
 1154      825.801       608.98
 1155      826.161       611.44
 1156      826.522        615.6
 1157      826.882       620.14
 1158      827.242       622.06
 1159      827.603       620.94
 1160      827.963       617.82
 1161      828.323       613.14
 1162      828.682        608.3
 1163      829.042       604.68
 1164      829.402       602.58
 1165      829.761       601.64
 1166      830.121       601.14
 1167       830.48       600.76
 1168      830.839       600.34
 1169      831.198       599.64
 1170      831.557       598.88
 1171      831.916       598.42
 1172      832.275       597.98
 1173      832.634       597.78
 1174      832.992       598.34
 1175      833.351       598.84
 1176      833.709        598.5
 1177      834.067       598.06
 1178      834.425       597.78
 1179      834.783       597.32
 1180      835.141       597.04
 1181      835.499       597.38
 1182      835.857       597.68
 1183      836.214       597.96
 1184      836.572       598.54
 1185      836.929       599.42
 1186      837.286       600.06
 1187      837.644       600.56
 1188      838.001       600.48
 1189      838.357       600.18
 1190      838.714       600.02
 1191      839.071       600.18
 1192      839.428       600.92
 1193      839.784       602.96
 1194       840.14        606.5
 1195      840.497       611.02
 1196      840.853       617.28
 1197      841.209       625.84
 1198      841.565       634.54
 1199       841.92        641.5
 1200      842.276       647.24
 1201      842.632        652.3
 1202      842.987       656.08
 1203      843.343        656.9
 1204      843.698       653.92
 1205      844.053       647.48
 1206      844.408       637.44
 1207      844.763       624.96
 1208      845.118       614.28
 1209      845.472       607.66
 1210      845.827       604.12
 1211      846.181        602.9
 1212      846.536       602.58
 1213       846.89        601.9
 1214      847.244       600.88
 1215      847.598       600.02
 1216      847.952       598.78
 1217      848.306       597.66
 1218       848.66       597.22
 1219      849.013       597.18
 1220      849.367       597.34
 1221       849.72       597.86
 1222      850.073       598.38
 1223      850.427        598.9
 1224       850.78        599.6
 1225      851.133        600.2
 1226      851.485       600.94
 1227      851.838       602.28
 1228      852.191       604.32
 1229      852.543       606.78
 1230      852.896       609.52
 1231      853.248       611.28
 1232        853.6       611.38
 1233      853.952       609.94
 1234      854.304       607.64
 1235      854.656       604.82
 1236      855.007        602.6
 1237      855.359       601.42
 1238       855.71       600.88
 1239      856.062       600.14
 1240      856.413       599.18
 1241      856.764       598.72
 1242      857.115       598.62
 1243      857.466       598.34
 1244      857.817       598.28
 1245      858.168       598.86
 1246      858.518       599.32
 1247      858.869       599.54
 1248      859.219          600
 1249      859.569       600.62
 1250       859.92       601.18
 1251       860.27       601.42
 1252      860.619       601.38
 1253      860.969       600.96
 1254      861.319       600.56
 1255      861.669       600.24
 1256      862.018       599.64
 1257      862.367       598.94
 1258      862.717       598.94
 1259      863.066       599.12
 1260      863.415       599.02
 1261      863.764        599.3
 1262      864.112       599.68
 1263      864.461       599.12
 1264       864.81       597.86
 1265      865.158       596.78
 1266      865.507        595.9
 1267      865.855       595.12
 1268      866.203       594.84
 1269      866.551       595.76
 1270      866.899       596.96
 1271      867.247       598.32
 1272      867.594       600.04
 1273      867.942       601.56
 1274      868.289       602.14
 1275      868.637       602.14
 1276      868.984       601.54
 1277      869.331       600.34
 1278      869.678        599.2
 1279      870.025          598
 1280      870.372       597.16
 1281      870.718       596.72
 1282      871.065       596.36
 1283      871.411          596
 1284      871.758       596.06
 1285      872.104       596.04
 1286       872.45       596.14
 1287      872.796        596.7
 1288      873.142       597.26
 1289      873.488       597.54
 1290      873.833       597.78
 1291      874.179       597.46
 1292      874.524       596.68
 1293      874.869       596.24
 1294      875.215       595.56
 1295       875.56       594.48
 1296      875.905       593.98
 1297       876.25        594.2
 1298      876.594       594.74
 1299      876.939       596.28
 1300      877.283        598.2
 1301      877.628       599.58
 1302      877.972       600.22
 1303      878.316       600.02
 1304       878.66       599.32
 1305      879.004        598.6
 1306      879.348       598.12
 1307      879.692       597.54
 1308      880.035       597.12
 1309      880.379       596.88
 1310      880.722       596.74
 1311      881.066       596.48
 1312      881.409       596.68
 1313      881.752       596.76
 1314      882.095       596.08
 1315      882.438       595.34
 1316       882.78       594.68
 1317      883.123       593.68
 1318      883.465       593.26
 1319      883.808       593.52
 1320       884.15       593.92
 1321      884.492       594.66
 1322      884.834        595.7
 1323      885.176        596.4
 1324      885.518       596.76
 1325      885.859       596.82
 1326      886.201       596.84
 1327      886.542       597.26
 1328      886.884       597.66
 1329      887.225        597.9
 1330      887.566       598.26
 1331      887.907        598.4
 1332      888.248       598.06
 1333      888.589       597.96
 1334      888.929       598.12
 1335       889.27       597.86
 1336       889.61       597.58
 1337      889.951       597.12
 1338      890.291       596.44
 1339      890.631       596.02
 1340      890.971       596.72
 1341      891.311       597.68
 1342       891.65       598.44
 1343       891.99       598.94
 1344      892.329       598.98
 1345      892.669       598.56
 1346      893.008       598.16
 1347      893.347       598.24
 1348      893.686       598.66
 1349      894.025          599
 1350      894.364       598.86
 1351      894.703       598.52
 1352      895.041       597.94
 1353       895.38       596.98
 1354      895.718        596.3
 1355      896.056       595.78
 1356      896.395       595.28
 1357      896.733       594.68
 1358      897.071       594.48
 1359      897.408       594.84
 1360      897.746        595.5
 1361      898.084        596.3
 1362      898.421       597.18
 1363      898.758       598.04
 1364      899.095       598.22
 1365      899.433       597.88
 1366       899.77       597.34
 1367      900.106       596.74
 1368      900.443       595.84
 1369       900.78       594.96
 1370      901.116       594.74
 1371      901.453        595.2
 1372      901.789       596.08
 1373      902.125       596.98
 1374      902.461       598.16
 1375      902.797       599.02
 1376      903.133       598.96
 1377      903.469       599.06
 1378      903.804       599.62
 1379       904.14       599.64
 1380      904.475       599.32
 1381       904.81       599.08
 1382      905.146       598.26
 1383      905.481          597
 1384      905.815       596.48
 1385       906.15       596.46
 1386      906.485       596.62
 1387      906.819       597.12
 1388      907.154       597.82
 1389      907.488       598.02
 1390      907.822       597.86
 1391      908.156       597.94
 1392       908.49       598.12
 1393      908.824       598.26
 1394      909.158       598.26
 1395      909.492       597.88
 1396      909.825        596.8
 1397      910.159       595.66
 1398      910.492       595.46
 1399      910.825          596
 1400      911.158       597.08
 1401      911.491        598.2
 1402      911.824       598.96
 1403      912.157       598.96
 1404      912.489       598.86
 1405      912.822       599.46
 1406      913.154        601.6
 1407      913.486       605.28
 1408      913.818       610.78
 1409       914.15       618.14
 1410      914.482       625.72
 1411      914.814       630.58
 1412      915.146       631.48
 1413      915.477        628.6
 1414      915.809       622.32
 1415       916.14       614.28
 1416      916.471       607.46
 1417      916.802       603.38
 1418      917.133       600.92
 1419      917.464       599.34
 1420      917.795       598.52
 1421      918.125       598.22
 1422      918.456       597.84
 1423      918.786       597.62
 1424      919.116       597.78
 1425      919.446       597.78
 1426      919.776       597.66
 1427      920.106       597.66
 1428      920.436       597.58
 1429      920.766       597.24
 1430      921.095       596.98
 1431      921.425       596.68
 1432      921.754       596.26
 1433      922.083        596.2
 1434      922.412       596.46
 1435      922.741        597.2
 1436       923.07       598.02
 1437      923.399       598.96
 1438      923.727       600.22
 1439      924.056       600.94
 1440      924.384       600.98
 1441      924.713       601.22
 1442      925.041       600.92
 1443      925.369       599.44
 1444      925.697       598.24
 1445      926.024       597.42
 1446      926.352       596.56
 1447       926.68       596.06
 1448      927.007        596.3
 1449      927.334       596.74
 1450      927.662        597.4
 1451      927.989       597.94
 1452      928.316       598.04
 1453      928.643        597.9
 1454      928.969       597.82
 1455      929.296       597.06
 1456      929.622       596.02
 1457      929.949       595.24
 1458      930.275        594.8
 1459      930.601       594.36
 1460      930.927       594.42
 1461      931.253       595.02
 1462      931.579        595.8
 1463      931.905       596.08
 1464       932.23       596.04
 1465      932.556       596.12
 1466      932.881       596.26
 1467      933.206       596.18
 1468      933.531       596.14
 1469      933.856       596.18
 1470      934.181       595.72
 1471      934.506       594.58
 1472       934.83        593.6
 1473      935.155        593.1
 1474      935.479       593.08
 1475      935.803       593.64
 1476      936.128       594.64
 1477      936.452       595.54
 1478      936.775       596.22
 1479      937.099       596.88
 1480      937.423       597.28
 1481      937.746       597.38
 1482       938.07        597.1
 1483      938.393       596.48
 1484      938.716       595.62
 1485      939.039       595.08
 1486      939.362       594.62
 1487      939.685       594.38
 1488      940.008       594.78
 1489      940.331       595.38
 1490      940.653        595.3
 1491      940.975       594.98
 1492      941.298        595.2
 1493       941.62       595.38
 1494      941.942        595.2
 1495      942.264        595.1
 1496      942.585       595.16
 1497      942.907       595.32
 1498      943.229        595.2
 1499       943.55       595.66
 1500      943.871        596.6
 1501      944.192       597.42
 1502      944.513       597.74
 1503      944.834       598.16
 1504      945.155       598.16
 1505      945.476        597.9
 1506      945.796        597.7
 1507      946.117        597.2
 1508      946.437       596.18
 1509      946.757       595.06
 1510      947.078       594.44
 1511      947.398       594.04
 1512      947.717       593.98
 1513      948.037       594.74
 1514      948.357       595.42
 1515      948.676       595.58
 1516      948.996       595.62
 1517      949.315       595.86
 1518      949.634       595.94
 1519      949.953       595.98
 1520      950.272        596.1
 1521      950.591       596.52
 1522      950.909       596.96
 1523      951.228       597.16
 1524      951.546        597.4
 1525      951.865       597.86
 1526      952.183       597.94
 1527      952.501       597.76
 1528      952.819       597.44
 1529      953.137       597.28
 1530      953.454        597.2
 1531      953.772        597.5
 1532      954.089       598.04
 1533      954.407        598.5
 1534      954.724        598.9
 1535      955.041        599.3
 1536      955.358       599.42
 1537      955.675       599.16
 1538      955.992       599.24
 1539      956.308       599.18
 1540      956.625        598.9
 1541      956.941       598.64
 1542      957.257       598.44
 1543      957.574       598.04
 1544       957.89       597.48
 1545      958.206       596.46
 1546      958.521       595.28
 1547      958.837       594.42
 1548      959.152        594.1
 1549      959.468        594.1
 1550      959.783       594.44
 1551      960.098       595.56
 1552      960.413       597.14
 1553      960.728       598.42
 1554      961.043       599.08
 1555      961.358       599.38
 1556      961.672       598.84
 1557      961.987       597.64
 1558      962.301       596.12
 1559      962.615       595.36
 1560       962.93       595.24
 1561      963.244       595.54
 1562      963.557       595.96
 1563      963.871       596.32
 1564      964.185       596.18
 1565      964.498        595.7
 1566      964.812       595.28
 1567      965.125       595.14
 1568      965.438       595.34
 1569      965.751        595.3
 1570      966.064       595.42
 1571      966.377       595.52
 1572      966.689       595.56
 1573      967.002       595.72
 1574      967.314       596.18
 1575      967.626        596.6
 1576      967.939       596.98
 1577      968.251       597.02
 1578      968.563       596.58
 1579      968.874       596.04
 1580      969.186       595.42
 1581      969.498       594.72
 1582      969.809       594.42
 1583       970.12        594.7
 1584      970.431       595.18
 1585      970.743       595.76
 1586      971.053       596.26
 1587      971.364       596.42
 1588      971.675        596.2
 1589      971.986       596.18
 1590      972.296       596.04
 1591      972.606          596
 1592      972.917       596.18
 1593      973.227       596.18
 1594      973.537        595.8
 1595      973.847       595.48
 1596      974.156       595.36
 1597      974.466       595.12
 1598      974.775       594.92
 1599      975.085       595.12
 1600      975.394        595.7
 1601      975.703       596.24
 1602      976.012       596.58
 1603      976.321       597.08
 1604       976.63       597.56
 1605      976.938       597.68
 1606      977.247       597.42
 1607      977.555       597.22
 1608      977.863       596.82
 1609      978.172        596.3
 1610       978.48       595.86
 1611      978.787       595.84
 1612      979.095       596.06
 1613      979.403       596.64
 1614       979.71       597.22
 1615      980.018       597.66
 1616      980.325          598
 1617      980.632       597.74
 1618      980.939       597.02
 1619      981.246        596.5
 1620      981.553       596.16
 1621       981.86       595.62
 1622      982.166        595.5
 1623      982.473       595.92
 1624      982.779       596.22
 1625      983.085       596.24
 1626      983.391        596.1
 1627      983.697       596.08
 1628      984.003       595.66
 1629      984.309       594.88
 1630      984.614       594.36
 1631       984.92       594.18
 1632      985.225       593.92
 1633       985.53       593.98
 1634      985.835        594.7
 1635       986.14       595.68
 1636      986.445       596.24
 1637       986.75       596.44
 1638      987.054        596.7
 1639      987.359       596.68
 1640      987.663        596.1
 1641      987.967       595.68
 1642      988.271       595.62
 1643      988.575       595.28
 1644      988.879       594.92
 1645      989.183          595
 1646      989.487        595.2
 1647       989.79          595
 1648      990.093       595.28
 1649      990.397        595.7
 1650        990.7       595.48
 1651      991.003       595.78
 1652      991.306       596.86
 1653      991.608       597.48
 1654      991.911       598.24
 1655      992.213        599.3
 1656      992.516       599.64
 1657      992.818       599.24
 1658       993.12       598.76
 1659      993.422       597.94
 1660      993.724       597.14
 1661      994.026        596.3
 1662      994.327       596.08
 1663      994.629        596.1
 1664       994.93       595.96
 1665      995.232        595.8
 1666      995.533       596.06
 1667      995.834       596.22
 1668      996.135       596.32
 1669      996.435       596.56
 1670      996.736       596.64
 1671      997.036       596.36
 1672      997.337       595.92
 1673      997.637       595.46
 1674      997.937       594.82
 1675      998.237       594.58
 1676      998.537       594.98
 1677      998.837       595.48
 1678      999.137       596.18
 1679      999.436       597.14
 1680      999.735       598.04
 1681      1000.03       598.76
 1682      1000.33       599.08
 1683      1000.63       598.68
 1684      1000.93       598.02
 1685      1001.23        597.3
 1686      1001.53       596.08
 1687      1001.83       595.04
 1688      1002.13       595.04
 1689      1002.42       595.88
 1690      1002.72       596.76
 1691      1003.02       597.54
 1692      1003.32       598.24
 1693      1003.62       598.18
 1694      1003.91        597.3
 1695      1004.21       596.54
 1696      1004.51       596.36
 1697      1004.81       596.62
 1698       1005.1       597.18
 1699       1005.4       597.74
 1700       1005.7       598.06
 1701      1005.99       598.26
 1702      1006.29          598
 1703      1006.59       597.72
 1704      1006.88       597.56
 1705      1007.18       597.08
 1706      1007.48        596.1
 1707      1007.77        595.3
 1708      1008.07       594.62
 1709      1008.36        593.9
 1710      1008.66       593.44
 1711      1008.95        593.5
 1712      1009.25       594.54
 1713      1009.55       596.02
 1714      1009.84       597.38
 1715      1010.14       598.68
 1716      1010.43       600.28
 1717      1010.73       601.02
 1718      1011.02       600.64
 1719      1011.31       599.64
 1720      1011.61       598.58
 1721       1011.9       597.42
 1722       1012.2       596.42
 1723      1012.49       596.04
 1724      1012.79       596.62
 1725      1013.08       597.42
 1726      1013.37       597.92
 1727      1013.67       598.04
 1728      1013.96       597.94
 1729      1014.25       597.64
 1730      1014.55       597.04
 1731      1014.84       596.02
 1732      1015.13       594.68
 1733      1015.42       593.32
 1734      1015.72        592.4
 1735      1016.01       592.28
 1736       1016.3          593
 1737      1016.59       594.42
 1738      1016.89       596.02
 1739      1017.18       597.74
 1740      1017.47       598.92
 1741      1017.76       599.42
 1742      1018.05       599.58
 1743      1018.35       598.82
 1744      1018.64        597.1
 1745      1018.93       595.82
 1746      1019.22       595.18
 1747      1019.51        594.8
 1748       1019.8        595.2
 1749      1020.09       596.14
 1750      1020.38       596.94
 1751      1020.67        597.6
 1752      1020.96       597.66
 1753      1021.25        597.1
 1754      1021.54       596.26
 1755      1021.83        595.5
 1756      1022.12       594.54
 1757      1022.41          594
 1758       1022.7       593.92
 1759      1022.99       594.08
 1760      1023.28       594.28
 1761      1023.57        594.4
 1762      1023.86       594.64
 1763      1024.15        595.3
 1764      1024.44       596.66
 1765      1024.73       598.06
 1766      1025.02       599.14
 1767       1025.3       599.54
 1768      1025.59       599.74
 1769      1025.88       599.42
 1770      1026.17       599.02
 1771      1026.46        598.6
 1772      1026.74       598.34
 1773      1027.03       597.74
 1774      1027.32        597.1
 1775      1027.61        596.7
 1776      1027.89       596.68
 1777      1028.18        596.7
 1778      1028.47       597.28
 1779      1028.76       597.72
 1780      1029.04       597.52
 1781      1029.33       597.46
 1782      1029.62       597.68
 1783       1029.9       597.32
 1784      1030.19       596.94
 1785      1030.47       597.02
 1786      1030.76       597.18
 1787      1031.05       597.54
 1788      1031.33       598.22
 1789      1031.62       599.22
 1790       1031.9        599.9
 1791      1032.19       599.98
 1792      1032.47        599.7
 1793      1032.76        599.1
 1794      1033.04       597.62
 1795      1033.33       595.74
 1796      1033.61       594.36
 1797       1033.9       593.08
 1798      1034.18       592.26
 1799      1034.47        592.3
 1800      1034.75       592.86
 1801      1035.04       593.26
 1802      1035.32       593.98
 1803       1035.6        595.3
 1804      1035.89       596.46
 1805      1036.17       597.12
 1806      1036.45       597.54
 1807      1036.74       597.74
 1808      1037.02        597.6
 1809       1037.3       597.18
 1810      1037.59       596.76
 1811      1037.87       596.72
 1812      1038.15       596.48
 1813      1038.44       595.74
 1814      1038.72       595.28
 1815         1039       595.36
 1816      1039.28       595.46
 1817      1039.56       595.84
 1818      1039.85          596
 1819      1040.13       596.08
 1820      1040.41       595.68
 1821      1040.69       594.98
 1822      1040.97       594.72
 1823      1041.25       595.14
 1824      1041.54       595.32
 1825      1041.82        595.7
 1826       1042.1       596.18
 1827      1042.38       596.82
 1828      1042.66        597.4
 1829      1042.94       597.94
 1830      1043.22       598.06
 1831       1043.5       598.16
 1832      1043.78       597.38
 1833      1044.06          596
 1834      1044.34       594.98
 1835      1044.62       594.74
 1836       1044.9       594.82
 1837      1045.18       595.12
 1838      1045.46       595.88
 1839      1045.74       596.72
 1840      1046.02       597.44
 1841       1046.3       597.98
 1842      1046.58       598.04
 1843      1046.85       598.14
 1844      1047.13       598.34
 1845      1047.41        598.4
 1846      1047.69       598.34
 1847      1047.97        598.6
 1848      1048.25        598.3
 1849      1048.52        597.6
 1850       1048.8       596.82
 1851      1049.08       595.88
 1852      1049.36        595.2
 1853      1049.63       595.16
 1854      1049.91        595.3
 1855      1050.19       595.62
 1856      1050.47       596.24
 1857      1050.74       596.72
 1858      1051.02       597.16
 1859       1051.3       597.74
 1860      1051.57       598.12
 1861      1051.85       598.22
 1862      1052.13       598.08
 1863       1052.4       597.72
 1864      1052.68       597.04
 1865      1052.95        596.4
 1866      1053.23       596.26
 1867      1053.51       596.86
 1868      1053.78       597.48
 1869      1054.06       597.72
 1870      1054.33       597.66
 1871      1054.61       597.02
 1872      1054.88       596.22
 1873      1055.16       595.68
 1874      1055.43       595.44
 1875      1055.71        595.6
 1876      1055.98       596.16
 1877      1056.25        596.5
 1878      1056.53       596.66
 1879       1056.8       597.36
 1880      1057.08        598.1
 1881      1057.35       598.96
 1882      1057.62        599.6
 1883       1057.9       599.88
 1884      1058.17       599.32
 1885      1058.45       598.52
 1886      1058.72       597.36
 1887      1058.99        596.5
 1888      1059.26       596.42
 1889      1059.54       596.76
 1890      1059.81       596.94
 1891      1060.08       597.56
 1892      1060.35       598.24
 1893      1060.63       598.42
 1894       1060.9       598.64
 1895      1061.17       598.68
 1896      1061.44       598.12
 1897      1061.71        597.4
 1898      1061.99       596.78
 1899      1062.26       596.24
 1900      1062.53       596.64
 1901       1062.8       597.68
 1902      1063.07        598.6
 1903      1063.34       599.18
 1904      1063.61       600.24
 1905      1063.88       601.26
 1906      1064.15       601.62
 1907      1064.42       601.98
 1908       1064.7        602.7
 1909      1064.97       603.16
 1910      1065.24       603.02
 1911      1065.51       602.54
 1912      1065.78       601.98
 1913      1066.04       601.24
 1914      1066.31          600
 1915      1066.58       598.86
 1916      1066.85        598.5
 1917      1067.12        598.6
 1918      1067.39        598.7
 1919      1067.66       598.92
 1920      1067.93       599.46
 1921       1068.2       599.64
 1922      1068.47       599.84
 1923      1068.73       600.52
 1924         1069       601.08
 1925      1069.27       600.98
 1926      1069.54       600.74
 1927      1069.81        599.6
 1928      1070.07       597.76
 1929      1070.34       596.22
 1930      1070.61       595.12
 1931      1070.88       594.76
 1932      1071.14       595.38
 1933      1071.41       596.28
 1934      1071.68        596.7
 1935      1071.94       596.88
 1936      1072.21       596.72
 1937      1072.48       596.24
 1938      1072.74       595.92
 1939      1073.01       596.16
 1940      1073.28       596.56
 1941      1073.54       596.98
 1942      1073.81       597.66
 1943      1074.07       598.22
 1944      1074.34       598.42
 1945       1074.6       598.42
 1946      1074.87       598.22
 1947      1075.13        597.2
 1948       1075.4          596
 1949      1075.66       595.36
 1950      1075.93       595.52
 1951      1076.19       595.86
 1952      1076.46       596.58
 1953      1076.72        597.4
 1954      1076.99       598.06
 1955      1077.25       598.34
 1956      1077.52        598.8
 1957      1077.78       599.46
 1958      1078.04          600
 1959      1078.31       600.56
 1960      1078.57        600.7
 1961      1078.83       600.46
 1962       1079.1       600.46
 1963      1079.36        600.5
 1964      1079.62       599.98
 1965      1079.89       599.72
 1966      1080.15       599.56
 1967      1080.41       598.56
 1968      1080.67       597.48
 1969      1080.94       597.34
 1970       1081.2       596.94
 1971      1081.46       596.56
 1972      1081.72       597.02
 1973      1081.98          598
 1974      1082.24        598.4
 1975      1082.51       598.92
 1976      1082.77       599.26
 1977      1083.03        599.2
 1978      1083.29       599.04
 1979      1083.55       598.62
 1980      1083.81        598.2
 1981      1084.07       597.98
 1982      1084.33        597.8
 1983      1084.59        597.4
 1984      1084.85       597.14
 1985      1085.11       597.02
 1986      1085.37       596.84
 1987      1085.63        596.8
 1988      1085.89       597.52
 1989      1086.15       598.88
 1990      1086.41          600
 1991      1086.67       600.72
 1992      1086.93        601.1
 1993      1087.19       601.04
 1994      1087.45       600.42
 1995      1087.71        599.7
 1996      1087.97        599.1
 1997      1088.23       598.52
 1998      1088.48        597.9
 1999      1088.74       597.56
 2000         1089       597.26
 2001      1089.26        597.1
 2002      1089.52       597.58
 2003      1089.77       598.08
 2004      1090.03       598.26
 2005      1090.29       598.36
 2006      1090.55       597.82
 2007       1090.8        596.5
 2008      1091.06       595.56
 2009      1091.32        595.1
 2010      1091.57       594.94
 2011      1091.83       595.72
 2012      1092.09       596.94
 2013      1092.34       597.48
 2014       1092.6       597.62
 2015      1092.86       597.54
 2016      1093.11       597.26
 2017      1093.37       596.82
 2018      1093.62        596.4
 2019      1093.88       596.22
 2020      1094.13       596.54
 2021      1094.39       597.36
 2022      1094.65       598.62
 2023       1094.9       599.44
 2024      1095.16        599.6
 2025      1095.41       599.52
 2026      1095.66       598.94
 2027      1095.92       598.06
 2028      1096.17       597.82
 2029      1096.43       598.32
 2030      1096.68       598.94
 2031      1096.94       599.66
 2032      1097.19       600.16
 2033      1097.44       600.24
 2034       1097.7       599.84
 2035      1097.95       599.32
 2036       1098.2       598.66
 2037      1098.46       598.26
 2038      1098.71       598.26
 2039      1098.96        598.7
 2040      1099.22        599.5
 2041      1099.47       600.34
 2042      1099.72       600.86
 2043      1099.97        600.8
 2044      1100.23       600.08
 2045      1100.48       599.68
 2046      1100.73       599.15
 2047      1100.98        598.6
