scansci Spectrometer Data File
--- Measurement Setting ---
Type: Sample Spectrum
Date: Mon Oct 16 16:55:39 2023
User: (Reserved by scansci)
Serial: (Reserved by scansci)
Channel: No. 11
Integration Time: 1
Average: 10
Boxcar: 2
Electrical Dark: No-corrected
Time Normalize: (Reserved by scansci)
Dual-beam: (Reserved by scansci)
Reference Ch: (Reserved by scansci)
--- Measurement Data ---
Pixel   Wavelength   Intensity
    0        344.4        645.9
    1      344.867      645.775
    2      345.334       646.08
    3      345.801       646.58
    4      346.268        646.9
    5      346.735       647.22
    6      347.202       647.64
    7      347.669       647.82
    8      348.135       647.46
    9      348.602       647.02
   10      349.068       646.62
   11      349.535       646.54
   12      350.001        646.5
   13      350.467        646.9
   14      350.933       647.32
   15      351.399       647.28
   16      351.866       647.38
   17      352.331       647.46
   18      352.797       647.66
   19      353.263       648.34
   20      353.729       649.32
   21      354.194       649.72
   22       354.66        649.7
   23      355.126       649.42
   24      355.591       648.68
   25      356.056       647.92
   26      356.522       647.54
   27      356.987       647.28
   28      357.452        647.3
   29      357.917       648.06
   30      358.382          649
   31      358.847       649.82
   32      359.312       650.82
   33      359.776       651.42
   34      360.241       651.14
   35      360.706       650.48
   36       361.17       649.84
   37      361.634       649.16
   38      362.099       648.62
   39      362.563       648.52
   40      363.027       648.16
   41      363.491       647.94
   42      363.955       648.36
   43      364.419       648.44
   44      364.883        647.5
   45      365.347       646.76
   46      365.811        646.2
   47      366.274        645.4
   48      366.738       644.94
   49      367.201        645.4
   50      367.665        645.9
   51      368.128       646.38
   52      368.592       646.62
   53      369.055       646.56
   54      369.518       646.94
   55      369.981       647.76
   56      370.444       647.98
   57      370.907       648.12
   58       371.37       648.56
   59      371.832        648.5
   60      372.295       648.32
   61      372.757       648.58
   62       373.22        648.7
   63      373.682       648.36
   64      374.145       648.14
   65      374.607       647.96
   66      375.069        647.3
   67      375.531       646.42
   68      375.993          646
   69      376.455       645.98
   70      376.917       646.02
   71      377.379        646.3
   72      377.841       646.48
   73      378.302       646.76
   74      378.764       647.04
   75      379.225       646.88
   76      379.687       646.62
   77      380.148       646.88
   78      380.609        647.1
   79      381.071       646.88
   80      381.532       647.12
   81      381.993       647.72
   82      382.454        648.5
   83      382.915       648.92
   84      383.375        648.7
   85      383.836        647.9
   86      384.297       646.88
   87      384.757          646
   88      385.218        645.7
   89      385.678        646.3
   90      386.138        647.4
   91      386.599       648.14
   92      387.059        648.4
   93      387.519        648.6
   94      387.979       648.48
   95      388.439       648.26
   96      388.899       648.44
   97      389.358       648.96
   98      389.818       649.64
   99      390.278       650.62
  100      390.737       651.12
  101      391.197       651.22
  102      391.656       650.94
  103      392.115        650.4
  104      392.575        649.8
  105      393.034        649.5
  106      393.493       649.02
  107      393.952       648.58
  108      394.411       648.32
  109       394.87       648.08
  110      395.328       648.26
  111      395.787        648.9
  112      396.246       649.36
  113      396.704       649.04
  114      397.163       648.14
  115      397.621       646.92
  116      398.079        645.9
  117      398.537       644.84
  118      398.995       644.42
  119      399.454       644.66
  120      399.911       644.96
  121      400.369       645.46
  122      400.827       646.22
  123      401.285       646.96
  124      401.743       647.34
  125        402.2       647.08
  126      402.658       646.28
  127      403.115       645.68
  128      403.572        644.9
  129       404.03       644.34
  130      404.487       644.66
  131      404.944       645.14
  132      405.401       645.36
  133      405.858       646.04
  134      406.315       646.72
  135      406.771       646.92
  136      407.228       647.28
  137      407.685       647.98
  138      408.141       648.16
  139      408.598       647.98
  140      409.054       647.96
  141       409.51        647.9
  142      409.967       647.42
  143      410.423       647.38
  144      410.879        647.6
  145      411.335       647.96
  146      411.791       648.42
  147      412.246       648.68
  148      412.702       648.82
  149      413.158        649.4
  150      413.613       649.52
  151      414.069       648.88
  152      414.524       648.22
  153       414.98        647.6
  154      415.435        646.6
  155       415.89       646.06
  156      416.345       646.22
  157        416.8       646.98
  158      417.255        647.9
  159       417.71       648.96
  160      418.165       649.52
  161      418.619        649.7
  162      419.074        649.8
  163      419.529       649.48
  164      419.983       648.76
  165      420.437        648.3
  166      420.892       647.76
  167      421.346       647.06
  168        421.8       646.84
  169      422.254       647.22
  170      422.708       648.02
  171      423.162       649.32
  172      423.616        650.5
  173       424.07       650.72
  174      424.523       650.36
  175      424.977       649.72
  176       425.43        648.9
  177      425.884        647.9
  178      426.337       647.26
  179       426.79       646.98
  180      427.243       646.92
  181      427.697       646.98
  182       428.15       647.24
  183      428.602       647.32
  184      429.055       647.34
  185      429.508       647.28
  186      429.961        647.2
  187      430.413       647.24
  188      430.866       647.24
  189      431.318       647.06
  190      431.771       646.68
  191      432.223       646.46
  192      432.675       646.66
  193      433.127       647.12
  194      433.579       647.36
  195      434.031       648.02
  196      434.483        648.6
  197      434.935       648.34
  198      435.387       648.08
  199      435.838       648.52
  200       436.29        648.4
  201      436.741       647.72
  202      437.193       647.34
  203      437.644       646.88
  204      438.095       646.02
  205      438.546       645.92
  206      438.997       646.44
  207      439.448       647.32
  208      439.899       648.56
  209       440.35        649.7
  210      440.801       650.24
  211      441.251       650.54
  212      441.702        650.7
  213      442.152       650.72
  214      442.603       650.06
  215      443.053       648.66
  216      443.503        647.7
  217      443.954       646.72
  218      444.404       645.52
  219      444.854       645.44
  220      445.304       646.38
  221      445.753       647.06
  222      446.203       647.42
  223      446.653       648.08
  224      447.102       648.12
  225      447.552       647.84
  226      448.001        647.5
  227      448.451       647.24
  228        448.9       647.18
  229      449.349       647.52
  230      449.798       647.92
  231      450.247        648.3
  232      450.696        648.6
  233      451.145       648.24
  234      451.594       647.72
  235      452.042       647.28
  236      452.491       646.82
  237      452.939        646.8
  238      453.388       647.08
  239      453.836       646.94
  240      454.285       646.04
  241      454.733       644.38
  242      455.181       642.78
  243      455.629        641.9
  244      456.077       641.58
  245      456.525        641.8
  246      456.972       643.18
  247       457.42       644.56
  248      457.868       645.06
  249      458.315       646.06
  250      458.763       647.26
  251       459.21       647.38
  252      459.657        646.8
  253      460.104       646.34
  254      460.552       645.02
  255      460.999       643.92
  256      461.446       643.92
  257      461.892       644.38
  258      462.339       644.46
  259      462.786        644.6
  260      463.233       644.74
  261      463.679       644.54
  262      464.125       644.04
  263      464.572       644.04
  264      465.018       644.72
  265      465.464       645.16
  266       465.91       645.16
  267      466.356        645.3
  268      466.802       645.22
  269      467.248       645.02
  270      467.694       645.36
  271       468.14       645.68
  272      468.585       645.74
  273      469.031       646.06
  274      469.476       645.96
  275      469.922       645.54
  276      470.367        645.6
  277      470.812       645.84
  278      471.257       646.12
  279      471.702        646.5
  280      472.147       646.96
  281      472.592       647.54
  282      473.037       647.62
  283      473.482          647
  284      473.926       646.36
  285      474.371        645.6
  286      474.815       644.82
  287      475.259       645.26
  288      475.704        646.5
  289      476.148        647.7
  290      476.592       648.66
  291      477.036        649.1
  292       477.48        648.8
  293      477.924       648.32
  294      478.368        647.9
  295      478.811       647.38
  296      479.255       647.28
  297      479.698       647.64
  298      480.142       648.16
  299      480.585       648.58
  300      481.028       649.36
  301      481.472       650.18
  302      481.915       650.56
  303      482.358       650.78
  304      482.801       651.06
  305      483.244        650.8
  306      483.686       650.04
  307      484.129       649.44
  308      484.572       649.18
  309      485.014        649.5
  310      485.456       650.14
  311      485.899       650.66
  312      486.341       651.26
  313      486.783       651.38
  314      487.225       650.74
  315      487.667       650.02
  316      488.109       649.34
  317      488.551        648.6
  318      488.993       648.34
  319      489.434       648.64
  320      489.876       648.76
  321      490.318       648.78
  322      490.759       648.66
  323        491.2       648.08
  324      491.641       647.24
  325      492.083       646.56
  326      492.524       646.08
  327      492.965       646.14
  328      493.406        646.5
  329      493.846       646.84
  330      494.287       647.16
  331      494.728       647.32
  332      495.168       646.82
  333      495.609       646.48
  334      496.049       646.44
  335      496.489       646.54
  336       496.93       647.02
  337       497.37       647.74
  338       497.81       647.92
  339       498.25        647.7
  340       498.69       647.06
  341      499.129       646.12
  342      499.569       645.52
  343      500.009       645.62
  344      500.448       646.06
  345      500.888       646.72
  346      501.327        647.5
  347      501.766       648.02
  348      502.206       648.12
  349      502.645       648.02
  350      503.084       647.94
  351      503.523       647.68
  352      503.961        647.7
  353        504.4       647.74
  354      504.839       647.82
  355      505.277       648.14
  356      505.716        648.8
  357      506.154       649.32
  358      506.593       649.52
  359      507.031       649.36
  360      507.469       649.04
  361      507.907       648.68
  362      508.345       648.16
  363      508.783          648
  364      509.221       648.08
  365      509.659       648.36
  366      510.096       648.76
  367      510.534        649.4
  368      510.971       649.54
  369      511.409       649.32
  370      511.846       649.38
  371      512.283       649.46
  372       512.72        649.1
  373      513.157          649
  374      513.594       649.14
  375      514.031        648.9
  376      514.468       648.88
  377      514.905          649
  378      515.341       648.86
  379      515.778       648.74
  380      516.214       648.72
  381       516.65       648.34
  382      517.087       648.12
  383      517.523       648.06
  384      517.959       647.96
  385      518.395        648.5
  386      518.831       649.16
  387      519.267       649.46
  388      519.702       649.98
  389      520.138       650.72
  390      520.574       650.74
  391      521.009       650.68
  392      521.444       650.78
  393       521.88       650.84
  394      522.315       650.28
  395       522.75       649.36
  396      523.185       648.82
  397       523.62       648.14
  398      524.055       647.32
  399       524.49       647.18
  400      524.924        647.4
  401      525.359       647.24
  402      525.794       647.56
  403      526.228       648.22
  404      526.662       648.92
  405      527.097       649.58
  406      527.531       649.96
  407      527.965       649.96
  408      528.399       649.84
  409      528.833       649.54
  410      529.267       649.04
  411        529.7        648.8
  412      530.134       648.94
  413      530.568       648.88
  414      531.001       648.74
  415      531.434       649.22
  416      531.868        649.7
  417      532.301       649.98
  418      532.734       650.32
  419      533.167       650.66
  420        533.6       650.08
  421      534.033       649.24
  422      534.466       648.46
  423      534.898       647.96
  424      535.331       647.58
  425      535.763        647.9
  426      536.196       648.42
  427      536.628       648.98
  428       537.06       649.28
  429      537.493       649.16
  430      537.925       648.98
  431      538.357       648.92
  432      538.788       648.56
  433       539.22       648.18
  434      539.652       648.28
  435      540.084       648.34
  436      540.515       648.38
  437      540.947       648.42
  438      541.378       648.36
  439      541.809       648.12
  440       542.24       647.88
  441      542.672       647.68
  442      543.103       647.86
  443      543.533        648.4
  444      543.964       648.88
  445      544.395       649.24
  446      544.826        649.8
  447      545.256       649.72
  448      545.687        649.2
  449      546.117        648.8
  450      546.547       648.46
  451      546.978       647.84
  452      547.408        647.6
  453      547.838       647.58
  454      548.268       647.38
  455      548.698       647.04
  456      549.127       646.96
  457      549.557       647.32
  458      549.987        647.8
  459      550.416       648.32
  460      550.846       649.04
  461      551.275       649.52
  462      551.704       649.24
  463      552.133        648.8
  464      552.562       648.36
  465      552.991       647.84
  466       553.42       647.62
  467      553.849        648.2
  468      554.278       648.82
  469      554.706       649.44
  470      555.135       649.92
  471      555.563       650.26
  472      555.991       649.88
  473       556.42       649.36
  474      556.848       648.96
  475      557.276       648.86
  476      557.704       648.98
  477      558.132       649.98
  478       558.56       651.32
  479      558.987       652.42
  480      559.415       653.14
  481      559.843       653.42
  482       560.27          653
  483      560.697       652.62
  484      561.125       652.74
  485      561.552          653
  486      561.979        653.1
  487      562.406       653.02
  488      562.833        652.5
  489       563.26       652.02
  490      563.686       651.98
  491      564.113       652.64
  492       564.54        653.6
  493      564.966       654.48
  494      565.392       654.72
  495      565.819       654.36
  496      566.245       653.56
  497      566.671        652.8
  498      567.097       652.16
  499      567.523       651.78
  500      567.949       651.58
  501      568.374       651.06
  502        568.8       650.46
  503      569.226       650.42
  504      569.651       650.72
  505      570.077       650.76
  506      570.502       650.86
  507      570.927       650.76
  508      571.352       650.06
  509      571.777       648.72
  510      572.202       647.56
  511      572.627       646.92
  512      573.052       646.98
  513      573.476       647.34
  514      573.901       648.24
  515      574.325        649.5
  516       574.75       650.66
  517      575.174       651.16
  518      575.598       651.38
  519      576.022        651.4
  520      576.446       651.24
  521       576.87        651.1
  522      577.294       651.08
  523      577.718       651.22
  524      578.142       651.32
  525      578.565       651.28
  526      578.989       651.46
  527      579.412       652.06
  528      579.835        652.6
  529      580.259       653.06
  530      580.682       653.78
  531      581.105       653.96
  532      581.528       653.36
  533      581.951       652.66
  534      582.373        652.1
  535      582.796        651.3
  536      583.219       650.24
  537      583.641        649.4
  538      584.063       649.14
  539      584.486        649.3
  540      584.908        649.3
  541       585.33        649.8
  542      585.752       651.02
  543      586.174        651.8
  544      586.596          652
  545      587.018        652.5
  546      587.439          653
  547      587.861        652.8
  548      588.282        652.5
  549      588.704       652.62
  550      589.125       652.58
  551      589.546        652.7
  552      589.967        653.5
  553      590.388       654.38
  554      590.809       655.22
  555       591.23       655.98
  556      591.651       656.22
  557      592.071       655.84
  558      592.492       655.52
  559      592.912       654.98
  560      593.333       654.72
  561      593.753        654.8
  562      594.173        654.6
  563      594.593       654.46
  564      595.013        654.5
  565      595.433       655.08
  566      595.853       655.94
  567      596.273        656.8
  568      596.693       657.14
  569      597.112          657
  570      597.532       655.94
  571      597.951       654.64
  572       598.37       654.06
  573      598.789       654.08
  574      599.208       654.42
  575      599.627       654.94
  576      600.046       655.42
  577      600.465       656.04
  578      600.884       656.94
  579      601.303       657.98
  580      601.721        659.2
  581      602.139       659.92
  582      602.558       659.92
  583      602.976       659.18
  584      603.394       658.14
  585      603.812       656.82
  586       604.23       655.64
  587      604.648       654.86
  588      605.066       654.56
  589      605.484       654.46
  590      605.901       654.54
  591      606.319       655.06
  592      606.736        655.8
  593      607.154       656.38
  594      607.571       656.62
  595      607.988       656.82
  596      608.405       656.78
  597      608.822       656.22
  598      609.239       655.56
  599      609.656       655.38
  600      610.072       655.44
  601      610.489       655.36
  602      610.905       655.32
  603      611.322       655.64
  604      611.738       655.68
  605      612.154       655.32
  606       612.57       655.08
  607      612.986       655.36
  608      613.402       655.14
  609      613.818       654.36
  610      614.234       653.64
  611       614.65       653.04
  612      615.065       651.68
  613      615.481       650.42
  614      615.896       650.12
  615      616.311       650.06
  616      616.727       650.14
  617      617.142        650.9
  618      617.557        652.2
  619      617.972       653.44
  620      618.386       654.26
  621      618.801       654.58
  622      619.216       654.82
  623       619.63       654.52
  624      620.045       653.56
  625      620.459       653.02
  626      620.873          653
  627      621.287       652.78
  628      621.702       652.48
  629      622.116        652.6
  630      622.529       652.54
  631      622.943        652.7
  632      623.357       652.92
  633      623.771       653.08
  634      624.184        653.2
  635      624.597       653.36
  636      625.011       652.88
  637      625.424        652.4
  638      625.837       652.16
  639       626.25       652.04
  640      626.663       652.44
  641      627.076       653.22
  642      627.489       653.84
  643      627.901        654.5
  644      628.314        654.8
  645      628.726        654.5
  646      629.139       654.06
  647      629.551       653.72
  648      629.963       652.86
  649      630.375       651.88
  650      630.787       650.86
  651      631.199       649.74
  652      631.611        648.6
  653      632.023        648.1
  654      632.434       648.18
  655      632.846       648.36
  656      633.257       648.48
  657      633.669       648.76
  658       634.08       649.22
  659      634.491        650.1
  660      634.902       651.34
  661      635.313       652.74
  662      635.724       653.92
  663      636.135       654.32
  664      636.545       653.92
  665      636.956       653.48
  666      637.366        653.1
  667      637.777       652.42
  668      638.187       651.82
  669      638.597       651.48
  670      639.007       650.86
  671      639.417       649.88
  672      639.827       649.04
  673      640.237        648.8
  674      640.647       649.12
  675      641.056        649.8
  676      641.466       650.62
  677      641.875       651.36
  678      642.285       651.96
  679      642.694       652.26
  680      643.103       652.34
  681      643.512       652.82
  682      643.921        653.4
  683       644.33       653.48
  684      644.739       653.08
  685      645.148       652.54
  686      645.556       651.98
  687      645.965       651.88
  688      646.373       652.22
  689      646.781        652.4
  690      647.189       652.18
  691      647.598        651.7
  692      648.006       650.88
  693      648.414        650.2
  694      648.821       650.18
  695      649.229       650.76
  696      649.637       651.36
  697      650.044       651.76
  698      650.452       651.54
  699      650.859       651.04
  700      651.266        650.9
  701      651.673       650.98
  702       652.08       651.14
  703      652.487          652
  704      652.894        652.7
  705      653.301       652.76
  706      653.708       652.12
  707      654.114       651.36
  708      654.521       650.86
  709      654.927       650.84
  710      655.333        650.8
  711       655.74       651.08
  712      656.146          652
  713      656.552       652.38
  714      656.958       651.84
  715      657.363       651.36
  716      657.769       651.08
  717      658.175       650.18
  718       658.58        649.1
  719      658.986       648.28
  720      659.391       647.52
  721      659.796       647.14
  722      660.201        647.5
  723      660.606       647.96
  724      661.011        648.6
  725      661.416       649.12
  726      661.821       649.16
  727      662.225       648.68
  728       662.63       648.46
  729      663.034       649.12
  730      663.439       650.18
  731      663.843       651.26
  732      664.247       652.44
  733      664.651       653.56
  734      665.055       653.64
  735      665.459       653.28
  736      665.863       653.04
  737      666.267       652.66
  738       666.67       651.86
  739      667.074       651.14
  740      667.477       650.14
  741       667.88       648.72
  742      668.283       647.72
  743      668.687        647.2
  744       669.09       647.08
  745      669.492       647.76
  746      669.895       648.98
  747      670.298       649.98
  748      670.701       651.12
  749      671.103       652.34
  750      671.505       653.02
  751      671.908       653.02
  752       672.31       652.26
  753      672.712       651.22
  754      673.114       649.92
  755      673.516       648.76
  756      673.918       648.18
  757       674.32       648.66
  758      674.721       649.32
  759      675.123       649.84
  760      675.524       650.62
  761      675.926       651.44
  762      676.327       651.74
  763      676.728       652.24
  764      677.129       652.74
  765       677.53       652.72
  766      677.931       652.48
  767      678.332       651.88
  768      678.732       650.74
  769      679.133       649.66
  770      679.533       649.18
  771      679.934       648.62
  772      680.334       648.04
  773      680.734       647.62
  774      681.134       647.44
  775      681.534       647.46
  776      681.934       648.16
  777      682.334       649.38
  778      682.733       650.16
  779      683.133       650.32
  780      683.532       649.88
  781      683.932       649.12
  782      684.331       648.52
  783       684.73        648.3
  784      685.129       648.34
  785      685.528       648.46
  786      685.927       648.82
  787      686.326       649.52
  788      686.725        650.7
  789      687.123        651.9
  790      687.522       652.56
  791       687.92       652.44
  792      688.319       651.42
  793      688.717       649.96
  794      689.115       648.64
  795      689.513       647.88
  796      689.911       648.08
  797      690.309       649.46
  798      690.706       650.66
  799      691.104       650.88
  800      691.501       650.98
  801      691.899        650.8
  802      692.296        649.5
  803      692.693        648.3
  804       693.09       647.56
  805      693.488       646.92
  806      693.884       646.26
  807      694.281       646.12
  808      694.678        646.3
  809      695.075        647.1
  810      695.471       647.92
  811      695.868       648.34
  812      696.264       648.38
  813       696.66        648.5
  814      697.056       648.56
  815      697.452       648.28
  816      697.848       648.48
  817      698.244        648.8
  818       698.64        648.4
  819      699.035       647.58
  820      699.431       646.66
  821      699.826       645.52
  822      700.222       644.74
  823      700.617       645.02
  824      701.012        646.1
  825      701.407       647.64
  826      701.802       648.98
  827      702.197       649.82
  828      702.592          650
  829      702.986       649.44
  830      703.381       648.34
  831      703.775       646.92
  832       704.17        645.6
  833      704.564       644.38
  834      704.958       643.44
  835      705.352        643.4
  836      705.746       644.02
  837       706.14       645.06
  838      706.533       646.02
  839      706.927       646.82
  840      707.321       647.04
  841      707.714        647.1
  842      708.107       646.76
  843      708.501       646.26
  844      708.894        645.7
  845      709.287       645.54
  846       709.68       646.22
  847      710.073          647
  848      710.465       647.74
  849      710.858       648.68
  850      711.251       649.58
  851      711.643       649.84
  852      712.035       649.88
  853      712.428       650.02
  854       712.82        650.4
  855      713.212       650.56
  856      713.604        650.2
  857      713.995       650.18
  858      714.387       650.08
  859      714.779       648.92
  860       715.17       647.66
  861      715.562       646.94
  862      715.953       646.26
  863      716.344       645.82
  864      716.735       645.96
  865      717.127       646.18
  866      717.517       646.38
  867      717.908       646.56
  868      718.299       646.66
  869       718.69       647.32
  870       719.08        647.9
  871      719.471       648.22
  872      719.861       648.24
  873      720.251       648.44
  874      720.641        648.4
  875      721.031       648.66
  876      721.421       649.02
  877      721.811       649.18
  878      722.201       648.88
  879       722.59       648.22
  880       722.98       647.46
  881      723.369       646.58
  882      723.759       645.98
  883      724.148       645.68
  884      724.537       645.92
  885      724.926       646.42
  886      725.315        646.9
  887      725.704       647.32
  888      726.092       647.66
  889      726.481       647.56
  890       726.87       647.22
  891      727.258        647.2
  892      727.646       647.26
  893      728.034       647.28
  894      728.423       647.32
  895      728.811       647.82
  896      729.198        648.1
  897      729.586       648.18
  898      729.974       648.02
  899      730.362       647.76
  900      730.749       647.34
  901      731.136       646.88
  902      731.524       646.08
  903      731.911       645.32
  904      732.298       644.98
  905      732.685       644.08
  906      733.072       642.94
  907      733.459       642.64
  908      733.845          643
  909      734.232       643.46
  910      734.618       644.38
  911      735.005       645.56
  912      735.391       646.76
  913      735.777        647.7
  914      736.163       647.86
  915      736.549       647.96
  916      736.935       647.86
  917      737.321       647.14
  918      737.706       646.94
  919      738.092       647.06
  920      738.477       646.78
  921      738.863       646.94
  922      739.248       647.12
  923      739.633        646.7
  924      740.018        646.5
  925      740.403       646.54
  926      740.788        646.5
  927      741.173       646.66
  928      741.557       646.52
  929      741.942       646.38
  930      742.326       646.52
  931      742.711       646.18
  932      743.095       645.74
  933      743.479          646
  934      743.863       646.52
  935      744.247        646.7
  936      744.631       646.98
  937      745.015        647.7
  938      745.398       647.66
  939      745.782       647.28
  940      746.165       646.94
  941      746.548       646.74
  942      746.932       646.44
  943      747.315       646.44
  944      747.698       646.38
  945      748.081       646.02
  946      748.463        645.7
  947      748.846       645.28
  948      749.229        645.2
  949      749.611        645.6
  950      749.993        646.3
  951      750.376       646.98
  952      750.758       647.68
  953       751.14       648.08
  954      751.522        647.9
  955      751.904       647.32
  956      752.285       646.24
  957      752.667       645.04
  958      753.049       644.14
  959       753.43        643.7
  960      753.811       643.88
  961      754.193       644.84
  962      754.574       645.98
  963      754.955       646.94
  964      755.336        647.7
  965      755.717        648.2
  966      756.097       648.42
  967      756.478       648.28
  968      756.858        647.9
  969      757.239       647.26
  970      757.619       646.68
  971      757.999       646.42
  972      758.379       646.34
  973      758.759       646.16
  974      759.139       646.68
  975      759.519        647.4
  976      759.899       647.48
  977      760.278        647.3
  978      760.658       647.22
  979      761.037       646.82
  980      761.417       646.84
  981      761.796       647.26
  982      762.175       647.92
  983      762.554       648.68
  984      762.933       648.88
  985      763.311       648.18
  986       763.69       647.44
  987      764.068        647.5
  988      764.447       647.78
  989      764.825       648.06
  990      765.203        648.6
  991      765.582       649.22
  992       765.96       649.44
  993      766.338       649.48
  994      766.715       649.84
  995      767.093          650
  996      767.471       649.38
  997      767.848       648.08
  998      768.226       647.12
  999      768.603       646.78
 1000       768.98       647.02
 1001      769.357       647.88
 1002      769.734       648.86
 1003      770.111       649.44
 1004      770.488        649.9
 1005      770.864       649.74
 1006      771.241       649.32
 1007      771.617       649.14
 1008      771.994       648.88
 1009       772.37        648.1
 1010      772.746       647.38
 1011      773.122       647.02
 1012      773.498       646.88
 1013      773.874       646.98
 1014       774.25       647.18
 1015      774.625        647.7
 1016      775.001       648.34
 1017      775.376       648.96
 1018      775.751       649.58
 1019      776.127       649.98
 1020      776.502       649.82
 1021      776.877       649.28
 1022      777.252        648.7
 1023      777.626       648.32
 1024      778.001       648.28
 1025      778.375       648.68
 1026       778.75       648.88
 1027      779.124       648.68
 1028      779.499       648.32
 1029      779.873       648.16
 1030      780.247       648.02
 1031      780.621       648.16
 1032      780.994       648.66
 1033      781.368       648.66
 1034      781.742       648.18
 1035      782.115       647.68
 1036      782.489        647.2
 1037      782.862       646.64
 1038      783.235        646.7
 1039      783.608        647.1
 1040      783.981       647.22
 1041      784.354        647.1
 1042      784.727       646.72
 1043        785.1       646.42
 1044      785.472        646.2
 1045      785.845       646.34
 1046      786.217       646.92
 1047      786.589       648.12
 1048      786.961       648.98
 1049      787.333       649.26
 1050      787.705       649.18
 1051      788.077        648.9
 1052      788.449          648
 1053       788.82        647.1
 1054      789.192       646.86
 1055      789.563       646.94
 1056      789.934       646.56
 1057      790.306        645.9
 1058      790.677       645.34
 1059      791.048       644.98
 1060      791.419        644.5
 1061      791.789       644.32
 1062       792.16        644.6
 1063       792.53       645.32
 1064      792.901       645.86
 1065      793.271       646.62
 1066      793.641       647.72
 1067      794.012       648.94
 1068      794.382       649.24
 1069      794.751       648.88
 1070      795.121       648.02
 1071      795.491       646.72
 1072      795.861       645.44
 1073       796.23       644.88
 1074      796.599       644.48
 1075      796.969       644.68
 1076      797.338       645.66
 1077      797.707        646.6
 1078      798.076       647.02
 1079      798.445       647.74
 1080      798.813       648.16
 1081      799.182          648
 1082       799.55        647.9
 1083      799.919       647.88
 1084      800.287        647.7
 1085      800.655       647.68
 1086      801.023       647.84
 1087      801.391        647.9
 1088      801.759       647.68
 1089      802.127       647.48
 1090      802.495       647.52
 1091      802.862       647.94
 1092       803.23       648.86
 1093      803.597       649.98
 1094      803.964        650.7
 1095      804.331       650.42
 1096      804.698       649.46
 1097      805.065        648.1
 1098      805.432        647.1
 1099      805.799       646.52
 1100      806.165        646.3
 1101      806.532       645.82
 1102      806.898       645.26
 1103      807.264       645.24
 1104      807.631       645.34
 1105      807.997       645.62
 1106      808.363        646.4
 1107      808.728       647.28
 1108      809.094        647.7
 1109       809.46       647.52
 1110      809.825       647.46
 1111      810.191       647.46
 1112      810.556       646.82
 1113      810.921       645.42
 1114      811.286        644.7
 1115      811.651        644.4
 1116      812.016        644.6
 1117      812.381       645.46
 1118      812.745       647.28
 1119       813.11        648.8
 1120      813.474       649.62
 1121      813.839       649.78
 1122      814.203       650.04
 1123      814.567        649.8
 1124      814.931       649.34
 1125      815.295       648.64
 1126      815.659       647.68
 1127      816.022       646.52
 1128      816.386       645.46
 1129      816.749       644.78
 1130      817.113       644.96
 1131      817.476       645.84
 1132      817.839       646.78
 1133      818.202       647.42
 1134      818.565          648
 1135      818.928       648.78
 1136      819.291       649.04
 1137      819.653        648.8
 1138      820.016       648.96
 1139      820.378       649.28
 1140       820.74       649.08
 1141      821.102        649.1
 1142      821.464        649.6
 1143      821.826        649.9
 1144      822.188       650.08
 1145       822.55       650.26
 1146      822.912       650.18
 1147      823.273       649.64
 1148      823.634       649.24
 1149      823.996        648.5
 1150      824.357       647.62
 1151      824.718       647.18
 1152      825.079       647.26
 1153       825.44       647.92
 1154      825.801       648.94
 1155      826.161       649.52
 1156      826.522       649.78
 1157      826.882       650.24
 1158      827.242       650.42
 1159      827.603       650.38
 1160      827.963       650.56
 1161      828.323        650.8
 1162      828.682       650.18
 1163      829.042       648.96
 1164      829.402       648.28
 1165      829.761       647.72
 1166      830.121       646.98
 1167       830.48       646.34
 1168      830.839        645.9
 1169      831.198       645.48
 1170      831.557        645.1
 1171      831.916       645.04
 1172      832.275       645.82
 1173      832.634       646.94
 1174      832.992       647.52
 1175      833.351          648
 1176      833.709       648.42
 1177      834.067        648.4
 1178      834.425       648.12
 1179      834.783       647.88
 1180      835.141        647.5
 1181      835.499       647.34
 1182      835.857       647.52
 1183      836.214       647.58
 1184      836.572        647.6
 1185      836.929       648.06
 1186      837.286       648.22
 1187      837.644        647.8
 1188      838.001       647.32
 1189      838.357       646.96
 1190      838.714       646.68
 1191      839.071       646.66
 1192      839.428       646.96
 1193      839.784       647.18
 1194       840.14       647.28
 1195      840.497       647.32
 1196      840.853       647.76
 1197      841.209        648.1
 1198      841.565       648.62
 1199       841.92       649.14
 1200      842.276       649.32
 1201      842.632        648.9
 1202      842.987       648.64
 1203      843.343        648.4
 1204      843.698       647.86
 1205      844.053       647.76
 1206      844.408       647.92
 1207      844.763       647.78
 1208      845.118        647.4
 1209      845.472        647.6
 1210      845.827       647.58
 1211      846.181       646.94
 1212      846.536       646.68
 1213       846.89       647.14
 1214      847.244       647.36
 1215      847.598       647.66
 1216      847.952        648.4
 1217      848.306       648.74
 1218       848.66        648.4
 1219      849.013        648.3
 1220      849.367       648.36
 1221       849.72       648.32
 1222      850.073        648.1
 1223      850.427       647.82
 1224       850.78       647.26
 1225      851.133       646.56
 1226      851.485       645.52
 1227      851.838       644.74
 1228      852.191       644.18
 1229      852.543       643.62
 1230      852.896       643.04
 1231      853.248        642.6
 1232        853.6       642.24
 1233      853.952       642.02
 1234      854.304       642.24
 1235      854.656       642.78
 1236      855.007       643.78
 1237      855.359       644.72
 1238       855.71       645.62
 1239      856.062       646.04
 1240      856.413       645.72
 1241      856.764        644.5
 1242      857.115       643.52
 1243      857.466       643.08
 1244      857.817       643.18
 1245      858.168       644.38
 1246      858.518       646.24
 1247      858.869        647.6
 1248      859.219       647.92
 1249      859.569       647.86
 1250       859.92       647.34
 1251       860.27        646.8
 1252      860.619        646.5
 1253      860.969        646.9
 1254      861.319       647.52
 1255      861.669       647.88
 1256      862.018        648.2
 1257      862.367       648.68
 1258      862.717       648.96
 1259      863.066       649.12
 1260      863.415       649.36
 1261      863.764       649.42
 1262      864.112       649.18
 1263      864.461       648.68
 1264       864.81        648.3
 1265      865.158       647.68
 1266      865.507       647.24
 1267      865.855       647.22
 1268      866.203       647.42
 1269      866.551       647.56
 1270      866.899        648.2
 1271      867.247       649.14
 1272      867.594       649.96
 1273      867.942        650.4
 1274      868.289       650.32
 1275      868.637       649.96
 1276      868.984       649.42
 1277      869.331       648.64
 1278      869.678       648.04
 1279      870.025       647.36
 1280      870.372       646.48
 1281      870.718       645.84
 1282      871.065       645.62
 1283      871.411       645.72
 1284      871.758       646.44
 1285      872.104       647.28
 1286       872.45       648.02
 1287      872.796       648.48
 1288      873.142       648.46
 1289      873.488       647.96
 1290      873.833       647.32
 1291      874.179       646.34
 1292      874.524       645.46
 1293      874.869       645.28
 1294      875.215       645.56
 1295       875.56        646.1
 1296      875.905       646.88
 1297       876.25       648.22
 1298      876.594       649.36
 1299      876.939       649.88
 1300      877.283       650.06
 1301      877.628       650.02
 1302      877.972       648.94
 1303      878.316       647.72
 1304       878.66       647.06
 1305      879.004       646.88
 1306      879.348        647.1
 1307      879.692       647.46
 1308      880.035       647.58
 1309      880.379        647.7
 1310      880.722       647.38
 1311      881.066       646.94
 1312      881.409        646.6
 1313      881.752       646.18
 1314      882.095       645.78
 1315      882.438       645.84
 1316       882.78       645.62
 1317      883.123       645.58
 1318      883.465        646.1
 1319      883.808       646.76
 1320       884.15       647.06
 1321      884.492       647.18
 1322      884.834       646.96
 1323      885.176       646.56
 1324      885.518       646.12
 1325      885.859        645.7
 1326      886.201       645.56
 1327      886.542       645.96
 1328      886.884       646.32
 1329      887.225       646.82
 1330      887.566       647.44
 1331      887.907        647.7
 1332      888.248       647.76
 1333      888.589       648.02
 1334      888.929       647.96
 1335       889.27       647.86
 1336       889.61       648.12
 1337      889.951        648.3
 1338      890.291       648.44
 1339      890.631       648.22
 1340      890.971       647.62
 1341      891.311       647.18
 1342       891.65       646.84
 1343       891.99       646.26
 1344      892.329       645.88
 1345      892.669       645.86
 1346      893.008        645.6
 1347      893.347        645.5
 1348      893.686       645.86
 1349      894.025       646.54
 1350      894.364        647.5
 1351      894.703       648.66
 1352      895.041        649.3
 1353       895.38       649.38
 1354      895.718        649.1
 1355      896.056       648.34
 1356      896.395       647.62
 1357      896.733       647.34
 1358      897.071       647.06
 1359      897.408       647.04
 1360      897.746       647.96
 1361      898.084          649
 1362      898.421       649.52
 1363      898.758        649.9
 1364      899.095       650.02
 1365      899.433        649.2
 1366       899.77       648.14
 1367      900.106        647.7
 1368      900.443       647.54
 1369       900.78          648
 1370      901.116       648.88
 1371      901.453       649.38
 1372      901.789        649.5
 1373      902.125       649.52
 1374      902.461       648.74
 1375      902.797       647.92
 1376      903.133        647.8
 1377      903.469       647.98
 1378      903.804       647.78
 1379       904.14       647.44
 1380      904.475       646.92
 1381       904.81       646.26
 1382      905.146       645.64
 1383      905.481       645.56
 1384      905.815        646.3
 1385       906.15       647.08
 1386      906.485        647.9
 1387      906.819        648.5
 1388      907.154        648.6
 1389      907.488       648.22
 1390      907.822        647.8
 1391      908.156       647.16
 1392       908.49       646.52
 1393      908.824       646.02
 1394      909.158       645.66
 1395      909.492       645.74
 1396      909.825       646.16
 1397      910.159       646.98
 1398      910.492        647.9
 1399      910.825       648.56
 1400      911.158       648.86
 1401      911.491       648.82
 1402      911.824        648.3
 1403      912.157       647.92
 1404      912.489       647.54
 1405      912.822       647.38
 1406      913.154       647.44
 1407      913.486        647.2
 1408      913.818        646.8
 1409       914.15       646.76
 1410      914.482        646.5
 1411      914.814       645.56
 1412      915.146       644.76
 1413      915.477       644.46
 1414      915.809       644.64
 1415       916.14       645.26
 1416      916.471       646.16
 1417      916.802       646.84
 1418      917.133        647.2
 1419      917.464       646.94
 1420      917.795       645.94
 1421      918.125       645.04
 1422      918.456       644.82
 1423      918.786       645.32
 1424      919.116       645.98
 1425      919.446       646.84
 1426      919.776       647.86
 1427      920.106       648.38
 1428      920.436       648.26
 1429      920.766       648.14
 1430      921.095       647.98
 1431      921.425        647.7
 1432      921.754       647.74
 1433      922.083       647.64
 1434      922.412       647.56
 1435      922.741        647.6
 1436       923.07        647.6
 1437      923.399       647.66
 1438      923.727       647.64
 1439      924.056       647.78
 1440      924.384       647.62
 1441      924.713        647.3
 1442      925.041       647.24
 1443      925.369        647.3
 1444      925.697       647.16
 1445      926.024       647.16
 1446      926.352       646.84
 1447       926.68       646.48
 1448      927.007       646.38
 1449      927.334        646.3
 1450      927.662       646.34
 1451      927.989       647.18
 1452      928.316       647.68
 1453      928.643       647.34
 1454      928.969       646.82
 1455      929.296       646.42
 1456      929.622        645.6
 1457      929.949       644.88
 1458      930.275       644.66
 1459      930.601       644.44
 1460      930.927       644.36
 1461      931.253       644.56
 1462      931.579       644.94
 1463      931.905       645.78
 1464       932.23       646.94
 1465      932.556       647.34
 1466      932.881        647.5
 1467      933.206       647.48
 1468      933.531       646.74
 1469      933.856       645.36
 1470      934.181       644.76
 1471      934.506       644.46
 1472       934.83       644.14
 1473      935.155       644.52
 1474      935.479       645.48
 1475      935.803       646.38
 1476      936.128       647.12
 1477      936.452        647.9
 1478      936.775       648.36
 1479      937.099       648.34
 1480      937.423       647.78
 1481      937.746       647.22
 1482       938.07        646.7
 1483      938.393       646.18
 1484      938.716       645.78
 1485      939.039       645.94
 1486      939.362       646.42
 1487      939.685       646.12
 1488      940.008       645.42
 1489      940.331          645
 1490      940.653       645.02
 1491      940.975       645.06
 1492      941.298        645.4
 1493       941.62       646.26
 1494      941.942       647.38
 1495      942.264       647.92
 1496      942.585        647.8
 1497      942.907       647.86
 1498      943.229       647.58
 1499       943.55        646.6
 1500      943.871       645.62
 1501      944.192        645.3
 1502      944.513        644.9
 1503      944.834        644.7
 1504      945.155       644.98
 1505      945.476       645.56
 1506      945.796       645.76
 1507      946.117       646.24
 1508      946.437       646.62
 1509      946.757       646.68
 1510      947.078       646.82
 1511      947.398       647.02
 1512      947.717       646.82
 1513      948.037       646.56
 1514      948.357       646.24
 1515      948.676       645.76
 1516      948.996       645.48
 1517      949.315       645.64
 1518      949.634        645.7
 1519      949.953       645.74
 1520      950.272       645.32
 1521      950.591       644.96
 1522      950.909       644.54
 1523      951.228       644.46
 1524      951.546       645.24
 1525      951.865       646.44
 1526      952.183       647.04
 1527      952.501       647.18
 1528      952.819        647.1
 1529      953.137       646.44
 1530      953.454       645.66
 1531      953.772       645.34
 1532      954.089        645.9
 1533      954.407       646.72
 1534      954.724       647.14
 1535      955.041       647.64
 1536      955.358       648.12
 1537      955.675       648.34
 1538      955.992       648.18
 1539      956.308        647.8
 1540      956.625        647.2
 1541      956.941       646.86
 1542      957.257       646.44
 1543      957.574        646.3
 1544       957.89        646.6
 1545      958.206       646.92
 1546      958.521        647.2
 1547      958.837       647.68
 1548      959.152       648.24
 1549      959.468       648.78
 1550      959.783       649.08
 1551      960.098       649.06
 1552      960.413       648.84
 1553      960.728       648.52
 1554      961.043       648.04
 1555      961.358       647.84
 1556      961.672       647.68
 1557      961.987       647.24
 1558      962.301       646.84
 1559      962.615       646.82
 1560       962.93       646.68
 1561      963.244       646.26
 1562      963.557        646.2
 1563      963.871       646.02
 1564      964.185        645.7
 1565      964.498       645.54
 1566      964.812       645.66
 1567      965.125        645.9
 1568      965.438       646.46
 1569      965.751       646.92
 1570      966.064       647.02
 1571      966.377          647
 1572      966.689       646.66
 1573      967.002       646.18
 1574      967.314        646.1
 1575      967.626        646.5
 1576      967.939       647.26
 1577      968.251       647.86
 1578      968.563       648.42
 1579      968.874       648.78
 1580      969.186       648.88
 1581      969.498       648.94
 1582      969.809       649.14
 1583       970.12       648.96
 1584      970.431        649.1
 1585      970.743       649.68
 1586      971.053       649.62
 1587      971.364       649.12
 1588      971.675       648.88
 1589      971.986       648.54
 1590      972.296       647.68
 1591      972.606       646.86
 1592      972.917        646.7
 1593      973.227       646.66
 1594      973.537       646.48
 1595      973.847       646.68
 1596      974.156        647.2
 1597      974.466       647.52
 1598      974.775        647.7
 1599      975.085       647.56
 1600      975.394       647.04
 1601      975.703       647.02
 1602      976.012       647.26
 1603      976.321       647.38
 1604       976.63       647.92
 1605      976.938       648.76
 1606      977.247       648.64
 1607      977.555       648.14
 1608      977.863       647.86
 1609      978.172       647.14
 1610       978.48        646.1
 1611      978.787        645.8
 1612      979.095        645.6
 1613      979.403       645.24
 1614       979.71       645.32
 1615      980.018       645.82
 1616      980.325       645.76
 1617      980.632       645.72
 1618      980.939       645.98
 1619      981.246       646.42
 1620      981.553        646.7
 1621       981.86       646.96
 1622      982.166       646.94
 1623      982.473       646.52
 1624      982.779       645.98
 1625      983.085       645.24
 1626      983.391       644.56
 1627      983.697       644.16
 1628      984.003       644.14
 1629      984.309        644.7
 1630      984.614        645.7
 1631       984.92        646.9
 1632      985.225       648.16
 1633       985.53       649.04
 1634      985.835        649.3
 1635       986.14       649.16
 1636      986.445       649.22
 1637       986.75       649.34
 1638      987.054        649.2
 1639      987.359       648.78
 1640      987.663       648.58
 1641      987.967       648.08
 1642      988.271       647.64
 1643      988.575          648
 1644      988.879        648.6
 1645      989.183       648.66
 1646      989.487        648.5
 1647       989.79       648.56
 1648      990.093       648.28
 1649      990.397       647.58
 1650        990.7       647.04
 1651      991.003       646.52
 1652      991.306       645.64
 1653      991.608       645.28
 1654      991.911        645.4
 1655      992.213       645.64
 1656      992.516       645.98
 1657      992.818        646.4
 1658       993.12       646.62
 1659      993.422       646.64
 1660      993.724        646.6
 1661      994.026       646.86
 1662      994.327       647.06
 1663      994.629       647.02
 1664       994.93       647.14
 1665      995.232       647.42
 1666      995.533        647.7
 1667      995.834       648.34
 1668      996.135       648.96
 1669      996.435        649.3
 1670      996.736       649.28
 1671      997.036       648.72
 1672      997.337       647.54
 1673      997.637       646.14
 1674      997.937       644.94
 1675      998.237       644.26
 1676      998.537        644.1
 1677      998.837       644.34
 1678      999.137       644.88
 1679      999.436        645.8
 1680      999.735       646.58
 1681      1000.03        647.1
 1682      1000.33       647.34
 1683      1000.63        647.6
 1684      1000.93       647.54
 1685      1001.23       647.58
 1686      1001.53       647.72
 1687      1001.83       648.06
 1688      1002.13       648.58
 1689      1002.42        649.2
 1690      1002.72       649.38
 1691      1003.02       648.94
 1692      1003.32       648.78
 1693      1003.62       648.58
 1694      1003.91       647.86
 1695      1004.21       647.52
 1696      1004.51       647.86
 1697      1004.81       647.86
 1698       1005.1       647.36
 1699       1005.4       647.14
 1700       1005.7        646.9
 1701      1005.99        646.7
 1702      1006.29       646.98
 1703      1006.59       647.64
 1704      1006.88       648.02
 1705      1007.18       648.32
 1706      1007.48       648.56
 1707      1007.77       648.18
 1708      1008.07       647.36
 1709      1008.36       646.56
 1710      1008.66       645.82
 1711      1008.95       645.12
 1712      1009.25       644.58
 1713      1009.55       644.44
 1714      1009.84       644.46
 1715      1010.14       644.74
 1716      1010.43       645.06
 1717      1010.73        644.9
 1718      1011.02       644.38
 1719      1011.31       644.14
 1720      1011.61       644.28
 1721       1011.9       644.98
 1722       1012.2       645.94
 1723      1012.49       646.92
 1724      1012.79       647.36
 1725      1013.08       646.78
 1726      1013.37        645.5
 1727      1013.67       644.44
 1728      1013.96       644.14
 1729      1014.25       644.74
 1730      1014.55        645.8
 1731      1014.84       646.66
 1732      1015.13       647.18
 1733      1015.42       647.38
 1734      1015.72       647.48
 1735      1016.01       647.84
 1736       1016.3       648.58
 1737      1016.59        649.2
 1738      1016.89       649.04
 1739      1017.18       648.48
 1740      1017.47        647.7
 1741      1017.76        646.8
 1742      1018.05       646.46
 1743      1018.35       646.92
 1744      1018.64          647
 1745      1018.93        646.5
 1746      1019.22        646.5
 1747      1019.51        646.7
 1748       1019.8       646.86
 1749      1020.09       647.22
 1750      1020.38       647.42
 1751      1020.67       647.42
 1752      1020.96       647.58
 1753      1021.25       647.48
 1754      1021.54       647.06
 1755      1021.83       647.06
 1756      1022.12       647.12
 1757      1022.41       646.38
 1758       1022.7       645.72
 1759      1022.99       646.04
 1760      1023.28        646.6
 1761      1023.57        646.9
 1762      1023.86       647.78
 1763      1024.15       648.72
 1764      1024.44       648.78
 1765      1024.73       648.22
 1766      1025.02       647.08
 1767       1025.3       645.48
 1768      1025.59       644.28
 1769      1025.88        644.1
 1770      1026.17       644.64
 1771      1026.46       645.54
 1772      1026.74       646.58
 1773      1027.03       647.24
 1774      1027.32       646.94
 1775      1027.61       646.44
 1776      1027.89       646.46
 1777      1028.18       646.82
 1778      1028.47       647.06
 1779      1028.76       647.34
 1780      1029.04       647.54
 1781      1029.33       647.36
 1782      1029.62        646.7
 1783       1029.9       645.78
 1784      1030.19        645.2
 1785      1030.47       645.04
 1786      1030.76        645.1
 1787      1031.05       645.64
 1788      1031.33        647.1
 1789      1031.62       648.56
 1790       1031.9       649.28
 1791      1032.19       649.54
 1792      1032.47       649.44
 1793      1032.76       648.94
 1794      1033.04       648.34
 1795      1033.33       647.92
 1796      1033.61       647.42
 1797       1033.9       646.92
 1798      1034.18       646.38
 1799      1034.47       646.08
 1800      1034.75        646.1
 1801      1035.04       646.42
 1802      1035.32       646.82
 1803       1035.6        646.7
 1804      1035.89       646.14
 1805      1036.17       645.46
 1806      1036.45        644.9
 1807      1036.74        644.6
 1808      1037.02       644.78
 1809       1037.3       645.74
 1810      1037.59       647.08
 1811      1037.87       648.38
 1812      1038.15       649.74
 1813      1038.44       651.36
 1814      1038.72        652.2
 1815         1039       652.46
 1816      1039.28       652.56
 1817      1039.56       652.28
 1818      1039.85        651.5
 1819      1040.13       650.46
 1820      1040.41        649.5
 1821      1040.69       648.92
 1822      1040.97       648.14
 1823      1041.25       647.32
 1824      1041.54       646.74
 1825      1041.82       646.04
 1826       1042.1       645.04
 1827      1042.38       644.48
 1828      1042.66       644.26
 1829      1042.94        644.3
 1830      1043.22       645.02
 1831       1043.5       646.16
 1832      1043.78        647.2
 1833      1044.06       648.38
 1834      1044.34        649.8
 1835      1044.62       650.64
 1836       1044.9       651.04
 1837      1045.18       651.22
 1838      1045.46       650.76
 1839      1045.74        649.9
 1840      1046.02          649
 1841       1046.3        648.3
 1842      1046.58       648.08
 1843      1046.85        648.1
 1844      1047.13       647.88
 1845      1047.41       647.88
 1846      1047.69       648.36
 1847      1047.97       648.48
 1848      1048.25       647.98
 1849      1048.52       647.64
 1850       1048.8       647.38
 1851      1049.08       646.18
 1852      1049.36       644.76
 1853      1049.63       644.26
 1854      1049.91        644.2
 1855      1050.19       644.44
 1856      1050.47       645.02
 1857      1050.74       645.68
 1858      1051.02       645.92
 1859       1051.3       646.06
 1860      1051.57       646.28
 1861      1051.85       646.64
 1862      1052.13       647.54
 1863       1052.4       648.44
 1864      1052.68        649.3
 1865      1052.95       649.22
 1866      1053.23        648.3
 1867      1053.51        646.6
 1868      1053.78       645.18
 1869      1054.06       644.32
 1870      1054.33       644.04
 1871      1054.61       644.52
 1872      1054.88       645.42
 1873      1055.16       646.34
 1874      1055.43       646.68
 1875      1055.71       646.84
 1876      1055.98       646.74
 1877      1056.25       646.58
 1878      1056.53       646.52
 1879       1056.8       646.46
 1880      1057.08       646.62
 1881      1057.35       646.94
 1882      1057.62        647.3
 1883       1057.9       647.64
 1884      1058.17       648.04
 1885      1058.45       647.94
 1886      1058.72       647.52
 1887      1058.99       647.26
 1888      1059.26       647.26
 1889      1059.54       647.04
 1890      1059.81       647.08
 1891      1060.08       647.82
 1892      1060.35       648.56
 1893      1060.63       649.08
 1894       1060.9       649.92
 1895      1061.17       650.26
 1896      1061.44       649.72
 1897      1061.71       649.26
 1898      1061.99        648.5
 1899      1062.26       647.46
 1900      1062.53       647.48
 1901       1062.8        648.2
 1902      1063.07       648.62
 1903      1063.34       649.08
 1904      1063.61       649.62
 1905      1063.88       649.98
 1906      1064.15       650.38
 1907      1064.42       650.64
 1908       1064.7       650.58
 1909      1064.97       650.64
 1910      1065.24        650.6
 1911      1065.51          650
 1912      1065.78        649.4
 1913      1066.04       649.36
 1914      1066.31       649.54
 1915      1066.58       649.44
 1916      1066.85       649.12
 1917      1067.12       648.82
 1918      1067.39       648.08
 1919      1067.66       646.68
 1920      1067.93        645.5
 1921       1068.2       645.44
 1922      1068.47       646.08
 1923      1068.73       646.74
 1924         1069       647.38
 1925      1069.27        647.9
 1926      1069.54        647.9
 1927      1069.81       647.08
 1928      1070.07       646.66
 1929      1070.34       646.84
 1930      1070.61       647.12
 1931      1070.88       647.22
 1932      1071.14       647.52
 1933      1071.41       647.56
 1934      1071.68       647.52
 1935      1071.94       647.58
 1936      1072.21       647.72
 1937      1072.48        647.9
 1938      1072.74       647.96
 1939      1073.01       647.68
 1940      1073.28       647.04
 1941      1073.54       646.54
 1942      1073.81        646.2
 1943      1074.07       646.28
 1944      1074.34       646.54
 1945       1074.6       646.72
 1946      1074.87       646.66
 1947      1075.13       646.56
 1948       1075.4        646.6
 1949      1075.66       646.44
 1950      1075.93        646.2
 1951      1076.19        646.4
 1952      1076.46       646.94
 1953      1076.72       646.88
 1954      1076.99       646.96
 1955      1077.25        647.4
 1956      1077.52       647.36
 1957      1077.78       646.54
 1958      1078.04        645.9
 1959      1078.31       645.18
 1960      1078.57        644.6
 1961      1078.83       644.46
 1962       1079.1       645.16
 1963      1079.36       646.18
 1964      1079.62       647.22
 1965      1079.89       647.96
 1966      1080.15        648.4
 1967      1080.41        648.4
 1968      1080.67       647.84
 1969      1080.94       647.36
 1970       1081.2       647.22
 1971      1081.46       647.06
 1972      1081.72       647.26
 1973      1081.98       648.48
 1974      1082.24        649.8
 1975      1082.51       650.92
 1976      1082.77       651.94
 1977      1083.03       652.08
 1978      1083.29       651.52
 1979      1083.55       650.86
 1980      1083.81       650.14
 1981      1084.07        649.7
 1982      1084.33        649.6
 1983      1084.59        649.2
 1984      1084.85        648.9
 1985      1085.11       648.98
 1986      1085.37       649.14
 1987      1085.63       649.46
 1988      1085.89          650
 1989      1086.15        650.3
 1990      1086.41       650.38
 1991      1086.67        650.5
 1992      1086.93        650.1
 1993      1087.19       649.36
 1994      1087.45       648.78
 1995      1087.71       648.04
 1996      1087.97       647.08
 1997      1088.23       647.04
 1998      1088.48       647.44
 1999      1088.74       647.44
 2000         1089       647.36
 2001      1089.26       647.36
 2002      1089.52        647.4
 2003      1089.77       647.42
 2004      1090.03       647.52
 2005      1090.29       648.02
 2006      1090.55       648.52
 2007       1090.8       648.54
 2008      1091.06        648.7
 2009      1091.32       649.24
 2010      1091.57        649.4
 2011      1091.83       649.46
 2012      1092.09       649.18
 2013      1092.34       648.54
 2014       1092.6       647.82
 2015      1092.86       647.36
 2016      1093.11        646.9
 2017      1093.37       646.56
 2018      1093.62       646.32
 2019      1093.88       645.86
 2020      1094.13       645.16
 2021      1094.39       644.74
 2022      1094.65       644.64
 2023       1094.9       644.88
 2024      1095.16       645.54
 2025      1095.41       646.34
 2026      1095.66       646.76
 2027      1095.92       647.32
 2028      1096.17       647.98
 2029      1096.43       648.06
 2030      1096.68          648
 2031      1096.94       648.12
 2032      1097.19        647.7
 2033      1097.44       646.76
 2034       1097.7       646.18
 2035      1097.95       645.96
 2036       1098.2       646.08
 2037      1098.46        646.7
 2038      1098.71        647.6
 2039      1098.96       648.38
 2040      1099.22       648.52
 2041      1099.47        648.1
 2042      1099.72        647.7
 2043      1099.97        647.3
 2044      1100.23        646.7
 2045      1100.48        647.7
 2046      1100.73        648.1
 2047      1100.98      648.467
