scansci Spectrometer Data File
--- Measurement Setting ---
Type: Sample Spectrum
Date: Mon Oct 16 16:26:57 2023
User: (Reserved by scansci)
Serial: (Reserved by scansci)
Channel: No. 11
Integration Time: 1
Average: 10
Boxcar: 2
Electrical Dark: No-corrected
Time Normalize: (Reserved by scansci)
Dual-beam: (Reserved by scansci)
Reference Ch: (Reserved by scansci)
--- Measurement Data ---
Pixel   Wavelength   Intensity
    0        162.5      640.167
    1      162.985      641.625
    2      163.469       642.38
    3      163.954       643.96
    4      164.439       644.42
    5      164.923        644.3
    6      165.408          644
    7      165.892       643.88
    8      166.377       643.92
    9      166.861       644.16
   10      167.345       643.72
   11       167.83       642.88
   12      168.314        642.3
   13      168.798        641.7
   14      169.282       641.18
   15      169.766       641.52
   16       170.25       642.44
   17      170.734          643
   18      171.218        643.7
   19      171.702       644.86
   20      172.185        645.8
   21      172.669       646.04
   22      173.153        646.3
   23      173.636       646.84
   24       174.12       647.26
   25      174.603       647.52
   26      175.087       647.98
   27       175.57       648.54
   28      176.053       649.44
   29      176.537        650.5
   30       177.02       651.42
   31      177.503          653
   32      177.986       655.14
   33      178.469       657.68
   34      178.952       660.98
   35      179.435       665.36
   36      179.918       669.68
   37      180.401       673.54
   38      180.884       676.38
   39      181.366       678.16
   40      181.849        679.1
   41      182.332       679.64
   42      182.814       679.66
   43      183.297       679.08
   44      183.779        677.7
   45      184.262       676.04
   46      184.744       674.26
   47      185.226       672.82
   48      185.708       671.94
   49      186.191       671.62
   50      186.673        671.1
   51      187.155       670.52
   52      187.637       670.32
   53      188.119       670.54
   54        188.6          671
   55      189.082        671.5
   56      189.564       671.96
   57      190.046       671.86
   58      190.527       671.46
   59      191.009       671.14
   60      191.491        671.3
   61      191.972       671.76
   62      192.454       672.04
   63      192.935       671.86
   64      193.416       671.22
   65      193.897       670.68
   66      194.379       670.36
   67       194.86       670.44
   68      195.341       670.44
   69      195.822       670.56
   70      196.303       671.12
   71      196.784       671.52
   72      197.265       671.98
   73      197.746       672.74
   74      198.226       673.18
   75      198.707       672.84
   76      199.188       672.28
   77      199.668       671.46
   78      200.149       670.78
   79      200.629       670.64
   80       201.11       670.44
   81       201.59       670.48
   82       202.07       671.08
   83       202.55       671.56
   84      203.031       672.04
   85      203.511       672.46
   86      203.991        672.3
   87      204.471       671.54
   88      204.951       670.48
   89      205.431       669.34
   90       205.91       668.36
   91       206.39       667.58
   92       206.87       667.68
   93      207.349       668.54
   94      207.829        669.2
   95      208.309       670.24
   96      208.788       671.24
   97      209.267       671.42
   98      209.747        671.5
   99      210.226       671.28
  100      210.705       670.28
  101      211.185       669.32
  102      211.664       668.48
  103      212.143       667.94
  104      212.622       667.76
  105      213.101       667.58
  106      213.579       667.32
  107      214.058       667.26
  108      214.537        667.1
  109      215.016       667.06
  110      215.494       667.44
  111      215.973       667.86
  112      216.452       668.06
  113       216.93       667.74
  114      217.408        667.1
  115      217.887       666.72
  116      218.365       666.64
  117      218.843       666.16
  118      219.321       666.28
  119      219.799       666.76
  120      220.278          667
  121      220.755       667.48
  122      221.233       668.36
  123      221.711       668.38
  124      222.189       667.96
  125      222.667       667.38
  126      223.144       666.46
  127      223.622       665.82
  128        224.1       665.42
  129      224.577       665.18
  130      225.055       664.88
  131      225.532       664.42
  132      226.009        664.4
  133      226.486       664.68
  134      226.964       664.76
  135      227.441       664.92
  136      227.918        665.4
  137      228.395       665.32
  138      228.872       665.26
  139      229.349       665.42
  140      229.826       665.12
  141      230.302       664.62
  142      230.779       664.76
  143      231.256        664.8
  144      231.732       664.88
  145      232.209       665.22
  146      232.685       665.66
  147      233.162       665.26
  148      233.638       664.18
  149      234.114       663.08
  150       234.59        662.3
  151      235.066       661.98
  152      235.543       662.22
  153      236.019        662.6
  154      236.495       662.84
  155       236.97       663.24
  156      237.446       663.12
  157      237.922       662.52
  158      238.398       662.54
  159      238.873       663.28
  160      239.349        663.8
  161      239.824       663.82
  162        240.3       663.54
  163      240.775          663
  164      241.251        662.4
  165      241.726       662.54
  166      242.201       663.18
  167      242.676       663.86
  168      243.151       664.98
  169      243.626       666.06
  170      244.101       666.52
  171      244.576       666.62
  172      245.051       667.02
  173      245.526        666.8
  174          246       666.12
  175      246.475        665.3
  176       246.95        664.5
  177      247.424       663.76
  178      247.899        663.4
  179      248.373       663.14
  180      248.847       662.98
  181      249.321        663.1
  182      249.796       662.76
  183       250.27       662.66
  184      250.744       663.22
  185      251.218       663.74
  186      251.692       663.96
  187      252.166       664.72
  188      252.639        665.2
  189      253.113       664.64
  190      253.587       663.94
  191       254.06       664.06
  192      254.534       664.28
  193      255.007       664.24
  194      255.481       664.82
  195      255.954       666.12
  196      256.427       666.86
  197      256.901       667.04
  198      257.374       667.66
  199      257.847       668.18
  200       258.32       667.36
  201      258.793       666.04
  202      259.266        665.3
  203      259.739       664.66
  204      260.211       663.42
  205      260.684       662.66
  206      261.157       662.56
  207      261.629       662.16
  208      262.102       661.14
  209      262.574       660.16
  210      263.046       659.34
  211      263.519        659.1
  212      263.991       659.72
  213      264.463       660.36
  214      264.935       660.96
  215      265.407       661.62
  216      265.879       661.52
  217      266.351       660.52
  218      266.823       659.72
  219      267.295       659.44
  220      267.766       659.38
  221      268.238       659.92
  222       268.71       660.72
  223      269.181       661.62
  224      269.653       662.44
  225      270.124          663
  226      270.595       662.78
  227      271.066        662.2
  228      271.538       661.46
  229      272.009       660.62
  230       272.48       659.64
  231      272.951       659.16
  232      273.422        659.5
  233      273.892       659.86
  234      274.363       659.92
  235      274.834       660.42
  236      275.305        660.9
  237      275.775       660.62
  238      276.246       660.14
  239      276.716       660.06
  240      277.186       659.98
  241      277.657       659.76
  242      278.127       659.46
  243      278.597       659.06
  244      279.067        658.4
  245      279.537       657.56
  246      280.007       657.32
  247      280.477       657.88
  248      280.947       658.92
  249      281.417        660.3
  250      281.886       661.34
  251      282.356       661.22
  252      282.825        660.3
  253      283.295       659.14
  254      283.764       657.82
  255      284.234       657.14
  256      284.703       657.18
  257      285.172       657.02
  258      285.641       656.88
  259       286.11        656.9
  260      286.579       656.52
  261      287.048       655.98
  262      287.517       655.88
  263      287.986       656.52
  264      288.454       657.08
  265      288.923       657.24
  266      289.392       657.72
  267       289.86       658.22
  268      290.329       657.68
  269      290.797       657.72
  270      291.265       658.62
  271      291.734       658.86
  272      292.202        658.8
  273       292.67       659.06
  274      293.138       658.66
  275      293.606       658.12
  276      294.074        657.5
  277      294.541       656.52
  278      295.009       655.84
  279      295.477       655.48
  280      295.944        655.2
  281      296.412        655.4
  282      296.879       655.82
  283      297.347       656.04
  284      297.814       656.32
  285      298.281       656.42
  286      298.749       656.02
  287      299.216       655.94
  288      299.683        655.8
  289       300.15       655.48
  290      300.616       654.94
  291      301.083       655.02
  292       301.55       655.06
  293      302.017        654.9
  294      302.483       654.84
  295       302.95       654.86
  296      303.416       654.74
  297      303.883       654.84
  298      304.349       655.38
  299      304.815       655.66
  300      305.281          656
  301      305.748       656.28
  302      306.214       656.64
  303       306.68       656.22
  304      307.146       655.28
  305      307.611        654.8
  306      308.077       654.52
  307      308.543       654.42
  308      309.008       655.34
  309      309.474        656.6
  310      309.939       657.58
  311      310.405       658.38
  312       310.87       657.98
  313      311.335       656.62
  314        311.8       655.42
  315      312.266       654.04
  316      312.731       652.54
  317      313.196        652.1
  318       313.66       652.54
  319      314.125       653.26
  320       314.59       653.98
  321      315.055        654.4
  322      315.519       654.22
  323      315.984       653.92
  324      316.448       653.88
  325      316.913       653.62
  326      317.377       653.56
  327      317.841        653.9
  328      318.305       653.62
  329      318.769       652.58
  330      319.233          652
  331      319.697       651.88
  332      320.161          652
  333      320.625       652.38
  334      321.089        652.7
  335      321.552       652.94
  336      322.016       652.94
  337      322.479       652.08
  338      322.943       650.94
  339      323.406       650.36
  340      323.869       649.88
  341      324.333       649.04
  342      324.796        648.7
  343      325.259        649.1
  344      325.722       650.04
  345      326.185       650.96
  346      326.647        652.1
  347       327.11       653.02
  348      327.573       653.28
  349      328.035       652.62
  350      328.498       651.42
  351       328.96       650.54
  352      329.423       649.98
  353      329.885       649.74
  354      330.347       649.74
  355       330.81       650.32
  356      331.272        650.7
  357      331.734       650.88
  358      332.196       651.18
  359      332.657       651.54
  360      333.119        651.7
  361      333.581        651.3
  362      334.043       650.38
  363      334.504       649.28
  364      334.966        648.5
  365      335.427       647.84
  366      335.888       647.54
  367       336.35       647.96
  368      336.811        648.8
  369      337.272       649.36
  370      337.733       649.68
  371      338.194       650.16
  372      338.655       650.48
  373      339.115        650.1
  374      339.576       649.66
  375      340.037       649.52
  376      340.497       649.48
  377      340.958       649.16
  378      341.418       649.24
  379      341.879       649.94
  380      342.339        650.6
  381      342.799        651.1
  382      343.259       652.04
  383      343.719       652.86
  384      344.179       653.24
  385      344.639       653.54
  386      345.099       653.04
  387      345.559       651.68
  388      346.018       650.48
  389      346.478       649.24
  390      346.937       647.76
  391      347.397       646.86
  392      347.856       646.94
  393      348.315       647.32
  394      348.774       647.44
  395      349.234       647.24
  396      349.693       647.52
  397      350.152       647.94
  398       350.61       647.68
  399      351.069       647.78
  400      351.528       648.36
  401      351.987       648.38
  402      352.445       647.98
  403      352.904       647.82
  404      353.362        647.1
  405       353.82       646.52
  406      354.279       646.92
  407      354.737        647.6
  408      355.195       647.86
  409      355.653        648.2
  410      356.111       648.52
  411      356.569       648.54
  412      357.027       648.32
  413      357.484       647.88
  414      357.942        647.2
  415      358.399       646.26
  416      358.857       645.36
  417      359.314       644.96
  418      359.772       645.42
  419      360.229       646.06
  420      360.686       646.38
  421      361.143       646.16
  422        361.6        645.6
  423      362.057       645.24
  424      362.514       645.08
  425      362.971       645.12
  426      363.427       645.14
  427      363.884       644.96
  428       364.34       644.76
  429      364.797       645.26
  430      365.253       646.12
  431      365.709       646.44
  432      366.166       646.44
  433      366.622       646.18
  434      367.078       645.44
  435      367.534       644.84
  436       367.99       644.92
  437      368.445       645.86
  438      368.901       646.46
  439      369.357       646.18
  440      369.812        645.5
  441      370.268       644.98
  442      370.723       644.18
  443      371.179       643.48
  444      371.634        643.8
  445      372.089       644.58
  446      372.544       645.38
  447      372.999       646.24
  448      373.454       647.04
  449      373.909       647.36
  450      374.364       647.24
  451      374.818       646.82
  452      375.273       645.92
  453      375.727        645.2
  454      376.182       644.94
  455      376.636       644.98
  456       377.09       645.68
  457      377.545       646.86
  458      377.999       647.98
  459      378.453       648.82
  460      378.907        649.5
  461      379.361        649.7
  462      379.814       649.42
  463      380.268       648.86
  464      380.722          648
  465      381.175       646.84
  466      381.629        645.8
  467      382.082       645.22
  468      382.535       645.16
  469      382.989       645.24
  470      383.442       645.68
  471      383.895        646.1
  472      384.348       646.34
  473      384.801       646.62
  474      385.253       647.26
  475      385.706       647.78
  476      386.159       648.14
  477      386.611       648.24
  478      387.064       648.02
  479      387.516       647.66
  480      387.968       647.24
  481      388.421       646.72
  482      388.873       646.24
  483      389.325       646.24
  484      389.777       646.58
  485      390.229          647
  486      390.681       647.58
  487      391.132       648.44
  488      391.584       648.62
  489      392.035       647.96
  490      392.487       647.52
  491      392.938        646.7
  492       393.39       645.44
  493      393.841       645.42
  494      394.292       646.26
  495      394.743        646.8
  496      395.194       647.88
  497      395.645       649.36
  498      396.096       650.22
  499      396.546       650.72
  500      396.997       650.96
  501      397.448       650.58
  502      397.898       649.66
  503      398.349       648.54
  504      398.799       647.64
  505      399.249       646.62
  506      399.699        645.7
  507      400.149       645.48
  508      400.599       645.04
  509      401.049       644.78
  510      401.499       645.36
  511      401.949        646.2
  512      402.398        646.8
  513      402.848       648.18
  514      403.297       649.48
  515      403.747       650.18
  516      404.196       650.66
  517      404.645       650.86
  518      405.094        650.3
  519      405.543       649.66
  520      405.992       649.64
  521      406.441       649.78
  522       406.89       649.74
  523      407.339       649.44
  524      407.787       648.66
  525      408.236       647.48
  526      408.684       646.78
  527      409.132       646.78
  528      409.581       647.32
  529      410.029       648.04
  530      410.477        648.9
  531      410.925       649.48
  532      411.373       649.74
  533      411.821       649.68
  534      412.269       649.86
  535      412.716       650.08
  536      413.164       650.24
  537      413.611       650.28
  538      414.059       650.04
  539      414.506       649.36
  540      414.953        648.9
  541        415.4       648.76
  542      415.847        648.9
  543      416.294        649.7
  544      416.741       651.06
  545      417.188        651.8
  546      417.635       651.68
  547      418.081        651.5
  548      418.528       650.88
  549      418.974       650.32
  550      419.421       650.28
  551      419.867       650.68
  552      420.313       651.32
  553      420.759       651.98
  554      421.205       652.22
  555      421.651       651.94
  556      422.097       651.14
  557      422.543       650.02
  558      422.989       649.52
  559      423.434       649.24
  560       423.88       649.64
  561      424.325       650.98
  562       424.77        652.5
  563      425.216        653.4
  564      425.661       653.46
  565      426.106       652.94
  566      426.551       652.42
  567      426.996       651.92
  568       427.44       651.18
  569      427.885       650.86
  570       428.33       650.84
  571      428.774       651.34
  572      429.219       652.48
  573      429.663        654.1
  574      430.107       655.76
  575      430.551        657.3
  576      430.996       657.62
  577       431.44       656.42
  578      431.883       654.98
  579      432.327        654.4
  580      432.771       654.36
  581      433.215       654.88
  582      433.658       655.98
  583      434.102       656.88
  584      434.545       657.14
  585      434.988       656.82
  586      435.431       656.26
  587      435.875       655.62
  588      436.318       655.52
  589      436.761       655.58
  590      437.203       655.62
  591      437.646       656.06
  592      438.089       656.78
  593      438.531       657.22
  594      438.974       657.48
  595      439.416       657.48
  596      439.859        657.1
  597      440.301          657
  598      440.743       656.94
  599      441.185       656.46
  600      441.627       655.84
  601      442.069       655.28
  602       442.51        654.6
  603      442.952        654.2
  604      443.394       654.58
  605      443.835        655.3
  606      444.277       656.02
  607      444.718       657.22
  608      445.159       658.64
  609        445.6       659.44
  610      446.041        660.1
  611      446.482       661.14
  612      446.923        661.9
  613      447.364        662.5
  614      447.804       663.06
  615      448.245       663.36
  616      448.685       663.22
  617      449.126       662.54
  618      449.566       660.98
  619      450.006       659.12
  620      450.447       657.98
  621      450.887       657.38
  622      451.326       657.38
  623      451.766       658.12
  624      452.206       659.24
  625      452.646       660.08
  626      453.085       660.38
  627      453.525       660.08
  628      453.964        659.9
  629      454.403        660.1
  630      454.843       660.02
  631      455.282       660.38
  632      455.721       661.52
  633       456.16       662.26
  634      456.599       662.76
  635      457.037       663.44
  636      457.476       663.12
  637      457.915        662.2
  638      458.353        661.2
  639      458.791       660.28
  640       459.23        659.4
  641      459.668       659.38
  642      460.106       659.56
  643      460.544       660.12
  644      460.982       660.78
  645       461.42        661.1
  646      461.857          661
  647      462.295        661.1
  648      462.733       661.12
  649       463.17       661.04
  650      463.607       661.58
  651      464.045       662.24
  652      464.482       662.42
  653      464.919       662.12
  654      465.356       662.06
  655      465.793       661.98
  656       466.23        661.5
  657      466.666       661.38
  658      467.103       661.66
  659      467.539       661.66
  660      467.976        661.8
  661      468.412       663.24
  662      468.848       664.52
  663      469.284       665.88
  664       469.72       667.26
  665      470.156       667.92
  666      470.592       667.52
  667      471.028        666.9
  668      471.464       665.96
  669      471.899        664.8
  670      472.335        664.1
  671       472.77       663.72
  672      473.205       663.48
  673      473.641       663.46
  674      474.076        663.6
  675      474.511       663.66
  676      474.946       663.52
  677       475.38       663.78
  678      475.815       664.46
  679       476.25       665.04
  680      476.684       665.66
  681      477.119       666.88
  682      477.553       668.14
  683      477.987       668.96
  684      478.421       670.08
  685      478.856       670.96
  686      479.289        671.3
  687      479.723        671.1
  688      480.157       670.74
  689      480.591          670
  690      481.024       669.32
  691      481.458       669.06
  692      481.891        669.4
  693      482.324        670.1
  694      482.758        671.3
  695      483.191       672.72
  696      483.624       673.48
  697      484.057       673.42
  698      484.489        673.5
  699      484.922        673.5
  700      485.355       673.66
  701      485.787       674.04
  702       486.22       674.74
  703      486.652       675.32
  704      487.084        675.5
  705      487.516        675.6
  706      487.948       675.84
  707       488.38       676.32
  708      488.812       676.98
  709      489.244       678.02
  710      489.676        678.7
  711      490.107       679.46
  712      490.539       680.52
  713       490.97        681.8
  714      491.401       683.44
  715      491.832       686.22
  716      492.263       689.14
  717      492.694        691.2
  718      493.125        692.9
  719      493.556       694.38
  720      493.987       694.82
  721      494.417       695.38
  722      494.848        696.9
  723      495.278       699.26
  724      495.708       702.42
  725      496.139        706.5
  726      496.569       710.36
  727      496.999       713.94
  728      497.429       717.14
  729      497.858       720.06
  730      498.288       722.88
  731      498.718       726.78
  732      499.147        731.5
  733      499.577       737.08
  734      500.006        743.9
  735      500.435          752
  736      500.864       759.86
  737      501.293        768.5
  738      501.722       778.36
  739      502.151       788.76
  740       502.58       800.32
  741      503.008       813.82
  742      503.437       828.86
  743      503.865       844.76
  744      504.293       861.98
  745      504.722       881.32
  746       505.15       903.36
  747      505.578       927.76
  748      506.006       955.24
  749      506.434       985.86
  750      506.861      1020.04
  751      507.289      1058.76
  752      507.716       1101.9
  753      508.144      1150.66
  754      508.571      1205.16
  755      508.998      1264.34
  756      509.425      1329.92
  757      509.852      1402.92
  758      510.279       1481.9
  759      510.706       1569.2
  760      511.133      1666.64
  761       511.56      1772.72
  762      511.986      1888.98
  763      512.412      2016.04
  764      512.839       2152.4
  765      513.265      2297.38
  766      513.691      2450.38
  767      514.117      2610.24
  768      514.543       2778.6
  769      514.969      2955.74
  770      515.395       3138.6
  771       515.82      3323.02
  772      516.246      3508.06
  773      516.671      3691.86
  774      517.096      3870.28
  775      517.522       4041.4
  776      517.947      4205.34
  777      518.372      4363.06
  778      518.797      4511.72
  779      519.222      4649.42
  780      519.646      4772.28
  781      520.071      4881.68
  782      520.495      4978.62
  783       520.92      5058.58
  784      521.344      5123.08
  785      521.768      5183.56
  786      522.192       5237.1
  787      522.616      5277.78
  788       523.04      5312.48
  789      523.464      5342.88
  790      523.888      5361.38
  791      524.311      5369.48
  792      524.735      5372.58
  793      525.158       5370.8
  794      525.581      5365.92
  795      526.005       5360.4
  796      526.428       5359.8
  797      526.851       5363.4
  798      527.274      5367.64
  799      527.696      5369.98
  800      528.119      5368.78
  801      528.542      5360.38
  802      528.964      5349.08
  803      529.386      5342.68
  804      529.809      5340.86
  805      530.231       5348.2
  806      530.653      5368.06
  807      531.075      5394.28
  808      531.497      5420.06
  809      531.918      5447.28
  810       532.34      5468.66
  811      532.761      5478.48
  812      533.183      5483.32
  813      533.604      5488.68
  814      534.025       5495.5
  815      534.447      5509.84
  816      534.868      5534.98
  817      535.289       5569.5
  818      535.709      5602.44
  819       536.13      5627.76
  820      536.551       5648.6
  821      536.971       5659.8
  822      537.392       5661.8
  823      537.812      5668.24
  824      538.232      5690.22
  825      538.652      5714.02
  826      539.072       5733.6
  827      539.492      5747.34
  828      539.912      5747.02
  829      540.331      5731.44
  830      540.751         5720
  831       541.17      5727.62
  832       541.59       5742.6
  833      542.009      5762.22
  834      542.428       5784.8
  835      542.847      5800.44
  836      543.266      5799.64
  837      543.685      5792.32
  838      544.104      5785.38
  839      544.522      5782.46
  840      544.941      5787.18
  841      545.359       5798.2
  842      545.778      5813.36
  843      546.196      5835.48
  844      546.614      5861.52
  845      547.032       5887.3
  846       547.45      5913.52
  847      547.867      5934.12
  848      548.285      5952.26
  849      548.703      5972.24
  850       549.12       5987.1
  851      549.538      6002.94
  852      549.955       6030.8
  853      550.372      6056.62
  854      550.789      6077.94
  855      551.206      6104.58
  856      551.623      6130.84
  857      552.039      6156.28
  858      552.456      6190.94
  859      552.873      6230.74
  860      553.289      6275.96
  861      553.705      6330.72
  862      554.121      6393.52
  863      554.537      6458.16
  864      554.953      6516.54
  865      555.369      6569.04
  866      555.785       6619.5
  867      556.201      6665.16
  868      556.616      6704.86
  869      557.032      6751.22
  870      557.447      6801.36
  871      557.862      6857.94
  872      558.277       6926.2
  873      558.692      6998.82
  874      559.107      7065.46
  875      559.522      7131.02
  876      559.937      7192.04
  877      560.351       7245.4
  878      560.766      7303.06
  879       561.18       7357.9
  880      561.595      7401.38
  881      562.009      7437.46
  882      562.423      7463.96
  883      562.837      7479.52
  884       563.25      7502.02
  885      563.664       7535.8
  886      564.078      7567.18
  887      564.491       7598.4
  888      564.905      7629.16
  889      565.318      7647.86
  890      565.731      7648.16
  891      566.144      7645.56
  892      566.557      7643.12
  893       566.97       7636.2
  894      567.383      7634.34
  895      567.795      7640.24
  896      568.208      7648.22
  897       568.62       7662.8
  898      569.033      7682.56
  899      569.445      7697.24
  900      569.857      7720.34
  901      570.269      7758.22
  902      570.681       7798.3
  903      571.093      7848.96
  904      571.504      7916.84
  905      571.916      7983.84
  906      572.327      8053.72
  907      572.739      8124.58
  908       573.15         8190
  909      573.561       8252.4
  910      573.972       8317.6
  911      574.383      8382.88
  912      574.794      8455.04
  913      575.204         8526
  914      575.615      8586.68
  915      576.025      8645.16
  916      576.436      8691.48
  917      576.846      8708.54
  918      577.256       8708.1
  919      577.666      8711.28
  920      578.076      8721.78
  921      578.486      8747.84
  922      578.896      8792.14
  923      579.305      8847.58
  924      579.715      8894.34
  925      580.124       8919.5
  926      580.533       8925.5
  927      580.942      8925.86
  928      581.351      8921.08
  929       581.76      8913.44
  930      582.169      8910.62
  931      582.578      8904.22
  932      582.986       8895.5
  933      583.395      8892.82
  934      583.803      8894.94
  935      584.212      8898.98
  936       584.62         8905
  937      585.028      8905.42
  938      585.436      8901.16
  939      585.843      8896.62
  940      586.251      8880.58
  941      586.659      8847.46
  942      587.066      8820.82
  943      587.474      8799.72
  944      587.881      8774.94
  945      588.288      8751.16
  946      588.695      8732.86
  947      589.102      8713.58
  948      589.509       8683.4
  949      589.915       8648.9
  950      590.322      8621.28
  951      590.728       8601.2
  952      591.135       8577.9
  953      591.541      8561.54
  954      591.947      8545.98
  955      592.353      8531.28
  956      592.759      8525.26
  957      593.165      8523.38
  958      593.571      8514.18
  959      593.976       8504.1
  960      594.382       8491.8
  961      594.787      8469.24
  962      595.192      8439.04
  963      595.597      8406.58
  964      596.002      8376.32
  965      596.407      8351.18
  966      596.812      8322.32
  967      597.217      8279.16
  968      597.621      8237.34
  969      598.026      8203.46
  970       598.43      8170.74
  971      598.834       8146.2
  972      599.238      8132.74
  973      599.642      8110.24
  974      600.046      8071.06
  975       600.45      8021.54
  976      600.854       7967.9
  977      601.257         7920
  978      601.661      7884.32
  979      602.064       7859.3
  980      602.467       7836.6
  981       602.87      7812.02
  982      603.273      7782.68
  983      603.676       7750.9
  984      604.079      7722.76
  985      604.481       7690.5
  986      604.884      7644.44
  987      605.286      7598.26
  988      605.689      7553.92
  989      606.091      7504.36
  990      606.493      7463.46
  991      606.895      7439.96
  992      607.297      7418.42
  993      607.698       7390.9
  994        608.1      7355.24
  995      608.501      7311.34
  996      608.903      7268.06
  997      609.304      7228.84
  998      609.705      7195.32
  999      610.106      7171.58
 1000      610.507      7149.52
 1001      610.908      7116.22
 1002      611.308      7074.42
 1003      611.709      7025.58
 1004      612.109      6967.38
 1005       612.51      6915.84
 1006       612.91       6874.4
 1007       613.31      6835.96
 1008       613.71      6805.14
 1009       614.11      6776.58
 1010       614.51      6740.24
 1011      614.909      6709.12
 1012      615.309      6682.28
 1013      615.708      6650.62
 1014      616.108       6623.1
 1015      616.507       6597.4
 1016      616.906      6554.66
 1017      617.305      6500.56
 1018      617.704      6448.36
 1019      618.102      6397.32
 1020      618.501       6346.4
 1021      618.899       6300.5
 1022      619.298       6259.8
 1023      619.696      6217.82
 1024      620.094       6172.4
 1025      620.492      6127.22
 1026       620.89       6084.6
 1027      621.288      6038.56
 1028      621.686       5993.4
 1029      622.083      5958.62
 1030       622.48      5926.56
 1031      622.878      5893.62
 1032      623.275      5864.06
 1033      623.672      5833.32
 1034      624.069      5796.08
 1035      624.466      5758.62
 1036      624.863      5721.66
 1037      625.259      5683.16
 1038      625.656      5641.86
 1039      626.052      5597.82
 1040      626.448       5548.2
 1041      626.844      5498.56
 1042      627.241      5455.72
 1043      627.636      5417.54
 1044      628.032       5382.9
 1045      628.428      5357.94
 1046      628.823      5336.24
 1047      629.219      5306.54
 1048      629.614      5279.66
 1049      630.009      5254.52
 1050      630.404       5221.1
 1051      630.799      5179.38
 1052      631.194      5136.04
 1053      631.589      5089.12
 1054      631.984      5038.46
 1055      632.378         4990
 1056      632.772      4945.64
 1057      633.167      4899.56
 1058      633.561      4852.44
 1059      633.955      4806.46
 1060      634.349       4756.7
 1061      634.743      4708.06
 1062      635.136       4669.1
 1063       635.53      4632.44
 1064      635.923      4593.96
 1065      636.316      4560.86
 1066       636.71      4531.26
 1067      637.103      4500.78
 1068      637.496       4469.9
 1069      637.888      4436.22
 1070      638.281      4394.96
 1071      638.674      4348.16
 1072      639.066      4303.26
 1073      639.459      4261.76
 1074      639.851      4224.46
 1075      640.243      4187.38
 1076      640.635      4145.02
 1077      641.027      4098.72
 1078      641.419      4053.04
 1079       641.81      4010.56
 1080      642.202      3973.62
 1081      642.593       3943.7
 1082      642.984      3910.94
 1083      643.375      3870.22
 1084      643.766      3827.02
 1085      644.157      3787.34
 1086      644.548      3751.78
 1087      644.939      3722.94
 1088      645.329      3696.26
 1089       645.72      3665.74
 1090       646.11      3628.08
 1091        646.5      3583.94
 1092       646.89       3536.7
 1093       647.28      3493.18
 1094       647.67      3454.12
 1095       648.06       3417.4
 1096      648.449       3378.6
 1097      648.839      3336.82
 1098      649.228      3291.82
 1099      649.617      3243.62
 1100      650.007      3194.38
 1101      650.396      3145.86
 1102      650.784       3100.2
 1103      651.173      3059.56
 1104      651.562      3021.32
 1105       651.95      2984.88
 1106      652.339      2953.62
 1107      652.727       2924.5
 1108      653.115      2897.36
 1109      653.503      2873.66
 1110      653.891       2853.1
 1111      654.279      2835.76
 1112      654.666      2822.96
 1113      655.054      2813.74
 1114      655.441      2806.36
 1115      655.828      2800.26
 1116      656.216      2794.08
 1117      656.603      2787.18
 1118      656.989      2778.24
 1119      657.376      2768.48
 1120      657.763      2757.92
 1121      658.149      2747.62
 1122      658.536       2733.9
 1123      658.922      2717.24
 1124      659.308      2697.94
 1125      659.694       2674.6
 1126       660.08       2648.1
 1127      660.466      2620.88
 1128      660.852         2592
 1129      661.237      2562.76
 1130      661.623      2536.68
 1131      662.008      2512.66
 1132      662.393      2489.64
 1133      662.778      2464.78
 1134      663.163      2438.34
 1135      663.548      2411.92
 1136      663.933      2384.96
 1137      664.317      2358.06
 1138      664.702       2332.3
 1139      665.086      2307.92
 1140       665.47      2284.06
 1141      665.854      2259.32
 1142      666.238      2233.72
 1143      666.622      2208.82
 1144      667.006      2184.36
 1145      667.389       2160.1
 1146      667.773      2137.24
 1147      668.156      2114.78
 1148      668.539      2093.26
 1149      668.923      2072.82
 1150      669.305      2052.68
 1151      669.688      2033.04
 1152      670.071      2015.12
 1153      670.454      1996.88
 1154      670.836      1978.14
 1155      671.218      1959.62
 1156      671.601       1940.5
 1157      671.983       1921.1
 1158      672.365       1902.3
 1159      672.747      1883.78
 1160      673.128      1864.62
 1161       673.51      1845.74
 1162      673.891      1827.86
 1163      674.273       1810.4
 1164      674.654      1793.94
 1165      675.035      1778.16
 1166      675.416       1761.8
 1167      675.797      1744.32
 1168      676.177      1727.58
 1169      676.558       1712.3
 1170      676.938         1699
 1171      677.319      1687.38
 1172      677.699      1674.88
 1173      678.079      1660.84
 1174      678.459      1645.26
 1175      678.839         1628
 1176      679.219      1610.86
 1177      679.598      1595.64
 1178      679.978       1583.2
 1179      680.357      1572.04
 1180      680.736      1560.18
 1181      681.115      1547.18
 1182      681.494      1533.74
 1183      681.873      1519.44
 1184      682.252       1504.9
 1185       682.63       1491.8
 1186      683.009       1479.5
 1187      683.387      1467.82
 1188      683.765      1456.34
 1189      684.143      1444.18
 1190      684.521      1431.38
 1191      684.899      1418.84
 1192      685.277      1406.46
 1193      685.654      1394.92
 1194      686.032      1383.86
 1195      686.409      1372.92
 1196      686.786      1362.74
 1197      687.163      1352.66
 1198       687.54      1342.38
 1199      687.917       1333.2
 1200      688.294      1324.88
 1201       688.67       1316.2
 1202      689.046      1308.02
 1203      689.423      1299.82
 1204      689.799      1290.62
 1205      690.175       1280.4
 1206      690.551      1269.62
 1207      690.927      1259.66
 1208      691.302       1251.2
 1209      691.678      1243.16
 1210      692.053      1236.02
 1211      692.428      1230.12
 1212      692.804      1223.48
 1213      693.179      1215.64
 1214      693.553       1208.2
 1215      693.928      1200.56
 1216      694.303      1191.12
 1217      694.677      1181.78
 1218      695.052      1173.02
 1219      695.426       1164.2
 1220        695.8      1155.64
 1221      696.174      1148.58
 1222      696.548      1141.84
 1223      696.921      1134.58
 1224      697.295      1126.94
 1225      697.669       1119.9
 1226      698.042      1113.14
 1227      698.415      1106.28
 1228      698.788      1099.94
 1229      699.161      1093.72
 1230      699.534       1087.5
 1231      699.907      1081.64
 1232      700.279      1075.42
 1233      700.652       1068.6
 1234      701.024      1062.28
 1235      701.396      1055.76
 1236      701.768         1048
 1237       702.14      1040.24
 1238      702.512      1033.26
 1239      702.883      1027.02
 1240      703.255       1021.7
 1241      703.626      1017.48
 1242      703.998      1014.16
 1243      704.369       1010.1
 1244       704.74      1004.98
 1245      705.111        999.5
 1246      705.481       993.96
 1247      705.852        988.1
 1248      706.222       982.24
 1249      706.593       976.42
 1250      706.963       970.62
 1251      707.333       965.02
 1252      707.703       959.36
 1253      708.073       953.94
 1254      708.442          949
 1255      708.812       943.44
 1256      709.181        937.5
 1257      709.551       932.54
 1258       709.92       929.16
 1259      710.289       926.26
 1260      710.658       923.76
 1261      711.027       921.36
 1262      711.395        918.1
 1263      711.764       913.76
 1264      712.132       908.96
 1265        712.5       904.12
 1266      712.869       899.42
 1267      713.236       895.12
 1268      713.604       890.62
 1269      713.972       886.32
 1270       714.34       882.68
 1271      714.707       879.66
 1272      715.074       876.84
 1273      715.442       874.14
 1274      715.809       871.26
 1275      716.176       867.38
 1276      716.542       863.16
 1277      716.909       859.62
 1278      717.276        856.5
 1279      717.642        853.5
 1280      718.008       850.72
 1281      718.374        847.8
 1282       718.74       844.26
 1283      719.106       840.18
 1284      719.472       836.32
 1285      719.838        833.2
 1286      720.203       830.48
 1287      720.568       828.06
 1288      720.934       826.14
 1289      721.299       823.76
 1290      721.664       821.12
 1291      722.029       818.72
 1292      722.393       816.08
 1293      722.758       813.76
 1294      723.122       811.36
 1295      723.486       808.58
 1296      723.851       805.32
 1297      724.215       801.18
 1298      724.578       796.68
 1299      724.942        793.4
 1300      725.306       790.92
 1301      725.669       788.32
 1302      726.033       786.96
 1303      726.396       786.34
 1304      726.759       785.32
 1305      727.122       784.16
 1306      727.485       783.04
 1307      727.847       780.84
 1308       728.21       777.68
 1309      728.572       774.34
 1310      728.935       770.24
 1311      729.297       766.24
 1312      729.659       763.14
 1313      730.021       760.54
 1314      730.382       758.38
 1315      730.744       757.16
 1316      731.105       755.84
 1317      731.467        754.2
 1318      731.828       752.94
 1319      732.189       751.38
 1320       732.55       749.66
 1321      732.911       748.26
 1322      733.271       747.22
 1323      733.632       745.98
 1324      733.992       744.44
 1325      734.352       742.44
 1326      734.713       740.16
 1327      735.072        737.6
 1328      735.432       735.18
 1329      735.792       733.34
 1330      736.152       731.88
 1331      736.511       730.46
 1332       736.87          729
 1333      737.229       727.38
 1334      737.589       725.92
 1335      737.947       724.76
 1336      738.306       723.98
 1337      738.665        723.3
 1338      739.023       722.32
 1339      739.382        720.6
 1340       739.74       718.48
 1341      740.098       716.62
 1342      740.456       715.02
 1343      740.814        713.1
 1344      741.171       711.78
 1345      741.529          711
 1346      741.886       709.78
 1347      742.244       708.18
 1348      742.601       706.66
 1349      742.958       705.04
 1350      743.314       703.42
 1351      743.671       702.24
 1352      744.028       701.54
 1353      744.384       701.38
 1354       744.74       700.74
 1355      745.097       699.82
 1356      745.453       698.78
 1357      745.809       697.88
 1358      746.164        696.8
 1359       746.52       695.88
 1360      746.875       695.22
 1361      747.231       694.32
 1362      747.586       692.84
 1363      747.941       691.44
 1364      748.296        690.6
 1365      748.651       690.02
 1366      749.005       689.96
 1367       749.36       690.62
 1368      749.714        691.2
 1369      750.069        691.1
 1370      750.423       690.08
 1371      750.777       688.78
 1372       751.13       687.68
 1373      751.484       686.98
 1374      751.838       687.02
 1375      752.191       688.16
 1376      752.544       689.18
 1377      752.897       689.44
 1378       753.25        689.7
 1379      753.603       689.74
 1380      753.956       689.06
 1381      754.309       688.82
 1382      754.661       689.04
 1383      755.013        689.2
 1384      755.365       689.36
 1385      755.717       689.12
 1386      756.069       688.72
 1387      756.421       688.18
 1388      756.773       687.54
 1389      757.124       687.12
 1390      757.476       686.62
 1391      757.827       685.28
 1392      758.178       683.32
 1393      758.529       681.26
 1394      758.879       679.32
 1395       759.23       678.06
 1396      759.581       677.38
 1397      759.931       676.98
 1398      760.281       676.62
 1399      760.631       675.14
 1400      760.981        673.1
 1401      761.331       671.46
 1402      761.681       670.08
 1403       762.03        668.5
 1404      762.379       667.66
 1405      762.729       667.38
 1406      763.078       667.06
 1407      763.427       666.66
 1408      763.776       666.34
 1409      764.124       666.14
 1410      764.473       665.86
 1411      764.821       665.34
 1412      765.169        664.8
 1413      765.517          664
 1414      765.865       663.16
 1415      766.213       662.46
 1416      766.561       661.56
 1417      766.909       660.76
 1418      767.256       660.74
 1419      767.603       660.46
 1420       767.95       659.54
 1421      768.297       658.56
 1422      768.644        657.8
 1423      768.991       656.98
 1424      769.337        656.4
 1425      769.684       656.44
 1426       770.03        656.6
 1427      770.376       656.88
 1428      770.722       657.36
 1429      771.068       657.12
 1430      771.414       656.14
 1431      771.759       655.18
 1432      772.105       654.04
 1433       772.45       652.72
 1434      772.795       651.96
 1435       773.14       651.68
 1436      773.485       652.26
 1437       773.83       653.08
 1438      774.174       653.14
 1439      774.519       652.62
 1440      774.863       651.84
 1441      775.207       650.72
 1442      775.551       649.52
 1443      775.895       648.78
 1444      776.239       648.48
 1445      776.582       648.76
 1446      776.926        649.2
 1447      777.269        649.5
 1448      777.612        649.9
 1449      777.955       650.48
 1450      778.298        650.8
 1451      778.641       650.34
 1452      778.983       649.86
 1453      779.326       649.12
 1454      779.668        648.1
 1455       780.01       647.46
 1456      780.352       647.08
 1457      780.694       646.28
 1458      781.036        645.7
 1459      781.377        645.7
 1460      781.719       645.48
 1461       782.06       644.82
 1462      782.401       644.18
 1463      782.742       643.42
 1464      783.083        642.3
 1465      783.424       641.42
 1466      783.764       641.46
 1467      784.105        641.8
 1468      784.445       642.06
 1469      784.785       642.48
 1470      785.125       642.72
 1471      785.465        642.2
 1472      785.805       641.48
 1473      786.144       641.34
 1474      786.484       641.12
 1475      786.823        640.8
 1476      787.162        640.9
 1477      787.501       641.24
 1478       787.84       640.94
 1479      788.178       640.84
 1480      788.517       641.12
 1481      788.855        640.8
 1482      789.194       639.86
 1483      789.532       639.14
 1484       789.87       638.18
 1485      790.208       636.92
 1486      790.545        636.3
 1487      790.883       636.44
 1488       791.22        636.5
 1489      791.557       636.66
 1490      791.894       637.04
 1491      792.231       637.22
 1492      792.568       637.42
 1493      792.905        638.2
 1494      793.241       639.04
 1495      793.578       640.04
 1496      793.914       641.24
 1497       794.25       642.08
 1498      794.586       642.28
 1499      794.922       642.26
 1500      795.257        641.9
 1501      795.593       640.98
 1502      795.928       640.04
 1503      796.263       639.38
 1504      796.598        638.6
 1505      796.933       637.52
 1506      797.268       636.74
 1507      797.603       636.04
 1508      797.937       635.44
 1509      798.271       635.44
 1510      798.606        635.5
 1511       798.94       635.08
 1512      799.274        634.5
 1513      799.607       634.14
 1514      799.941        633.7
 1515      800.274       633.46
 1516      800.608       634.06
 1517      800.941       635.04
 1518      801.274        635.6
 1519      801.607       635.88
 1520      801.939       635.92
 1521      802.272       635.74
 1522      802.604       635.24
 1523      802.936        635.1
 1524      803.269       635.24
 1525      803.601       635.38
 1526      803.932       635.98
 1527      804.264       636.78
 1528      804.596       636.68
 1529      804.927       636.34
 1530      805.258        636.2
 1531      805.589       635.16
 1532       805.92       633.74
 1533      806.251       632.86
 1534      806.582       632.14
 1535      806.912       631.38
 1536      807.242       631.74
 1537      807.573        633.1
 1538      807.903        634.4
 1539      808.232       635.58
 1540      808.562        636.9
 1541      808.892       637.32
 1542      809.221       636.96
 1543      809.551        636.4
 1544       809.88       635.18
 1545      810.209       633.66
 1546      810.538        632.1
 1547      810.866        630.1
 1548      811.195       628.42
 1549      811.523          628
 1550      811.851       628.32
 1551       812.18       629.04
 1552      812.507       630.32
 1553      812.835       631.68
 1554      813.163        632.5
 1555       813.49       632.84
 1556      813.818       632.92
 1557      814.145        632.8
 1558      814.472       632.32
 1559      814.799       631.42
 1560      815.126       630.34
 1561      815.452       629.16
 1562      815.779       628.34
 1563      816.105       627.86
 1564      816.431       627.68
 1565      816.757       628.12
 1566      817.083       629.04
 1567      817.409       630.06
 1568      817.734       630.74
 1569       818.06        631.3
 1570      818.385       631.22
 1571       818.71       630.92
 1572      819.035       630.48
 1573       819.36        630.6
 1574      819.685       631.32
 1575      820.009        631.9
 1576      820.333       632.24
 1577      820.658        633.1
 1578      820.982       633.82
 1579      821.305       633.82
 1580      821.629       633.96
 1581      821.953       633.98
 1582      822.276       633.34
 1583        822.6       632.42
 1584      822.923        631.7
 1585      823.246       631.22
 1586      823.569        631.2
 1587      823.891          631
 1588      824.214       630.74
 1589      824.536       630.28
 1590      824.858        629.6
 1591       825.18        629.1
 1592      825.502       629.16
 1593      825.824       629.88
 1594      826.146       631.24
 1595      826.467       632.52
 1596      826.789       633.28
 1597       827.11        633.7
 1598      827.431       633.18
 1599      827.752       632.04
 1600      828.072        631.5
 1601      828.393       631.16
 1602      828.713       630.84
 1603      829.034       631.14
 1604      829.354       631.58
 1605      829.674       631.34
 1606      829.993       630.92
 1607      830.313       630.48
 1608      830.633        629.6
 1609      830.952       628.66
 1610      831.271        628.1
 1611       831.59       627.86
 1612      831.909       627.78
 1613      832.228       627.72
 1614      832.546       627.92
 1615      832.865        628.3
 1616      833.183       628.64
 1617      833.501       628.78
 1618      833.819       628.92
 1619      834.137       629.14
 1620      834.455       629.38
 1621      834.772       629.42
 1622      835.089       629.52
 1623      835.407       629.94
 1624      835.724       630.28
 1625       836.04       630.52
 1626      836.357       630.98
 1627      836.674        631.3
 1628       836.99        631.2
 1629      837.306        630.9
 1630      837.623       630.72
 1631      837.939       630.76
 1632      838.254       630.88
 1633       838.57        631.3
 1634      838.886       632.06
 1635      839.201        632.7
 1636      839.516        632.8
 1637      839.831       632.42
 1638      840.146       631.84
 1639      840.461       631.16
 1640      840.775       630.68
 1641       841.09       630.46
 1642      841.404       630.58
 1643      841.718       631.18
 1644      842.032       631.48
 1645      842.346       631.34
 1646      842.659       631.48
 1647      842.973          632
 1648      843.286       632.12
 1649      843.599        632.3
 1650      843.912       632.42
 1651      844.225       631.64
 1652      844.538       630.22
 1653      844.851        629.8
 1654      845.163       630.04
 1655      845.475       630.28
 1656      845.787          631
 1657      846.099        631.8
 1658      846.411       631.42
 1659      846.723       630.04
 1660      847.034       628.68
 1661      847.345        627.9
 1662      847.657        627.8
 1663      847.968       628.14
 1664      848.278       628.86
 1665      848.589       629.38
 1666        848.9       628.92
 1667       849.21       628.66
 1668       849.52        628.5
 1669       849.83       628.52
 1670       850.14       628.92
 1671       850.45       629.58
 1672      850.759       629.22
 1673      851.069       628.72
 1674      851.378       628.52
 1675      851.687        628.3
 1676      851.996       627.86
 1677      852.305        627.8
 1678      852.614        627.4
 1679      852.922       626.58
 1680       853.23        626.2
 1681      853.539        626.2
 1682      853.847       626.28
 1683      854.154       626.78
 1684      854.462       627.48
 1685       854.77       627.88
 1686      855.077       628.54
 1687      855.384       629.26
 1688      855.691       629.62
 1689      855.998       629.36
 1690      856.305       629.22
 1691      856.612       629.44
 1692      856.918       629.46
 1693      857.224       629.84
 1694       857.53       631.04
 1695      857.836       631.48
 1696      858.142        631.2
 1697      858.448       631.18
 1698      858.753       630.82
 1699      859.059        630.3
 1700      859.364       630.16
 1701      859.669       629.76
 1702      859.974        629.5
 1703      860.278       630.06
 1704      860.583       630.84
 1705      860.887       631.72
 1706      861.192       632.92
 1707      861.496       633.88
 1708        861.8       633.82
 1709      862.103       633.06
 1710      862.407       632.38
 1711       862.71       631.78
 1712      863.014       631.04
 1713      863.317       630.58
 1714       863.62       630.26
 1715      863.922       629.46
 1716      864.225       628.46
 1717      864.527        627.7
 1718       864.83       627.38
 1719      865.132        627.6
 1720      865.434       627.98
 1721      865.736       628.16
 1722      866.037        628.3
 1723      866.339       628.52
 1724       866.64       628.32
 1725      866.941        627.9
 1726      867.242       628.02
 1727      867.543       628.38
 1728      867.844       628.32
 1729      868.145       628.04
 1730      868.445       628.22
 1731      868.745        628.7
 1732      869.045       628.86
 1733      869.345       628.84
 1734      869.645       629.32
 1735      869.944        629.9
 1736      870.244        629.6
 1737      870.543       629.12
 1738      870.842       629.26
 1739      871.141       628.86
 1740       871.44       628.26
 1741      871.739       628.32
 1742      872.037       628.46
 1743      872.335       628.06
 1744      872.634       628.24
 1745      872.931       628.66
 1746      873.229       628.78
 1747      873.527       628.94
 1748      873.824       629.16
 1749      874.122        629.6
 1750      874.419       630.48
 1751      874.716       631.38
 1752      875.013       631.56
 1753      875.309       631.38
 1754      875.606       630.96
 1755      875.902       629.92
 1756      876.199       628.02
 1757      876.495       626.56
 1758       876.79       625.94
 1759      877.086        625.4
 1760      877.382       625.18
 1761      877.677       626.04
 1762      877.972       627.38
 1763      878.267       628.54
 1764      878.562       629.34
 1765      878.857       629.86
 1766      879.152       630.12
 1767      879.446       630.42
 1768       879.74        630.3
 1769      880.034       629.86
 1770      880.328       628.82
 1771      880.622       627.58
 1772      880.916       626.26
 1773      881.209       625.58
 1774      881.502       625.92
 1775      881.795       626.92
 1776      882.088       627.66
 1777      882.381       627.56
 1778      882.674       626.82
 1779      882.966        626.2
 1780      883.258       626.42
 1781      883.551       627.34
 1782      883.843       628.36
 1783      884.134        629.2
 1784      884.426        629.3
 1785      884.717       628.32
 1786      885.009       627.04
 1787        885.3       626.46
 1788      885.591       626.38
 1789      885.882       626.22
 1790      886.172       626.16
 1791      886.463       626.34
 1792      886.753        626.7
 1793      887.043        627.2
 1794      887.333       627.52
 1795      887.623        627.7
 1796      887.913       628.04
 1797      888.202       628.56
 1798      888.492       628.48
 1799      888.781        628.2
 1800       889.07       628.52
 1801      889.359        628.7
 1802      889.647       628.36
 1803      889.936        628.5
 1804      890.224       628.96
 1805      890.512       628.78
 1806        890.8        628.5
 1807      891.088       628.48
 1808      891.376       628.44
 1809      891.663       628.02
 1810      891.951       627.38
 1811      892.238       627.16
 1812      892.525       627.26
 1813      892.812       627.66
 1814      893.099       628.26
 1815      893.385        629.1
 1816      893.671       629.24
 1817      893.958       628.56
 1818      894.244        627.2
 1819       894.53       626.16
 1820      894.815       625.52
 1821      895.101        625.1
 1822      895.386       624.84
 1823      895.671       624.72
 1824      895.956       624.86
 1825      896.241       624.98
 1826      896.526       625.24
 1827       896.81       625.94
 1828      897.095       626.62
 1829      897.379       626.72
 1830      897.663       626.66
 1831      897.947       626.64
 1832      898.231       626.46
 1833      898.514       626.56
 1834      898.798       626.42
 1835      899.081       625.96
 1836      899.364        625.6
 1837      899.647       625.42
 1838      899.929       625.38
 1839      900.212        626.1
 1840      900.494       627.38
 1841      900.776       627.96
 1842      901.058       627.88
 1843       901.34       627.38
 1844      901.622       627.08
 1845      901.904        626.8
 1846      902.185       626.58
 1847      902.466       626.52
 1848      902.747       626.96
 1849      903.028       627.14
 1850      903.309       627.62
 1851      903.589       628.44
 1852       903.87       629.06
 1853       904.15        629.9
 1854       904.43       630.54
 1855       904.71       630.48
 1856      904.989       630.36
 1857      905.269       630.66
 1858      905.548       630.48
 1859      905.827       630.08
 1860      906.106        629.8
 1861      906.385       629.92
 1862      906.664       630.04
 1863      906.942        629.8
 1864      907.221       629.66
 1865      907.499       629.42
 1866      907.777       628.72
 1867      908.055       627.96
 1868      908.332       627.52
 1869       908.61        627.2
 1870      908.887       627.12
 1871      909.164       627.52
 1872      909.441       627.68
 1873      909.718       627.58
 1874      909.995       627.72
 1875      910.271       627.86
 1876      910.548       627.12
 1877      910.824       626.04
 1878        911.1       625.08
 1879      911.375       624.34
 1880      911.651       623.64
 1881      911.927       623.82
 1882      912.202       624.78
 1883      912.477       625.68
 1884      912.752       626.34
 1885      913.027       627.06
 1886      913.301       627.14
 1887      913.576       626.86
 1888       913.85       626.92
 1889      914.124       626.74
 1890      914.398       626.12
 1891      914.672        626.2
 1892      914.945       627.02
 1893      915.219       627.48
 1894      915.492       627.84
 1895      915.765       628.12
 1896      916.038       627.36
 1897      916.311       625.98
 1898      916.583       625.28
 1899      916.856       624.96
 1900      917.128       624.84
 1901        917.4       625.82
 1902      917.672       627.38
 1903      917.944          628
 1904      918.215       628.28
 1905      918.486       628.74
 1906      918.758       628.78
 1907      919.029        628.1
 1908      919.299        627.6
 1909       919.57       627.06
 1910      919.841       626.44
 1911      920.111       626.22
 1912      920.381        626.2
 1913      920.651       626.28
 1914      920.921       626.74
 1915      921.191       627.24
 1916       921.46        626.8
 1917      921.729       626.08
 1918      921.999       625.42
 1919      922.268        624.8
 1920      922.536       624.52
 1921      922.805       624.74
 1922      923.073       625.02
 1923      923.342          626
 1924       923.61       626.88
 1925      923.878       627.18
 1926      924.145       627.76
 1927      924.413       628.16
 1928       924.68       627.64
 1929      924.948       627.12
 1930      925.215       627.28
 1931      925.482       627.38
 1932      925.748       628.04
 1933      926.015        629.1
 1934      926.281       629.68
 1935      926.547          629
 1936      926.813       627.72
 1937      927.079       626.66
 1938      927.345        626.4
 1939       927.61        626.4
 1940      927.876       626.24
 1941      928.141       626.22
 1942      928.406       626.04
 1943      928.671       624.66
 1944      928.935       623.64
 1945        929.2        623.9
 1946      929.464       624.36
 1947      929.728       624.52
 1948      929.992          625
 1949      930.256       625.34
 1950       930.52       625.24
 1951      930.783       625.12
 1952      931.046       625.52
 1953      931.309       626.02
 1954      931.572       626.42
 1955      931.835       626.56
 1956      932.097       626.44
 1957       932.36       626.34
 1958      932.622        626.4
 1959      932.884        626.4
 1960      933.146        626.5
 1961      933.408       626.56
 1962      933.669       626.24
 1963       933.93        625.8
 1964      934.192       625.94
 1965      934.453        626.5
 1966      934.713       626.98
 1967      934.974       627.66
 1968      935.234       628.72
 1969      935.495        628.9
 1970      935.755        628.6
 1971      936.015        628.9
 1972      936.274       629.22
 1973      936.534       628.86
 1974      936.793       628.52
 1975      937.053        628.5
 1976      937.312       628.68
 1977      937.571       628.72
 1978      937.829       628.96
 1979      938.088       629.34
 1980      938.346       629.38
 1981      938.604       628.84
 1982      938.862       628.12
 1983       939.12       627.36
 1984      939.378       626.76
 1985      939.635        626.5
 1986      939.893       626.84
 1987       940.15       627.62
 1988      940.407       628.44
 1989      940.663       629.18
 1990       940.92       629.16
 1991      941.176       628.72
 1992      941.433        628.3
 1993      941.689       627.32
 1994      941.944       626.28
 1995        942.2        626.2
 1996      942.456       626.02
 1997      942.711       625.16
 1998      942.966       624.74
 1999      943.221       625.02
 2000      943.476       625.36
 2001      943.731       625.62
 2002      943.985       625.94
 2003      944.239       626.22
 2004      944.493       625.98
 2005      944.747       625.62
 2006      945.001       625.58
 2007      945.255       625.76
 2008      945.508       626.06
 2009      945.761        626.3
 2010      946.014       626.16
 2011      946.267       626.16
 2012       946.52       626.34
 2013      946.772       626.28
 2014      947.025        626.1
 2015      947.277          626
 2016      947.529       625.82
 2017      947.781       625.94
 2018      948.032       626.26
 2019      948.284       626.04
 2020      948.535       625.62
 2021      948.786       625.28
 2022      949.037       624.72
 2023      949.288       624.18
 2024      949.538       624.08
 2025      949.789       624.32
 2026      950.039        624.6
 2027      950.289       625.04
 2028      950.539       626.02
 2029      950.788       627.36
 2030      951.038       628.52
 2031      951.287        628.9
 2032      951.536       628.72
 2033      951.785       628.28
 2034      952.034        628.4
 2035      952.282        629.1
 2036      952.531       629.76
 2037      952.779       630.04
 2038      953.027       629.84
 2039      953.275        628.8
 2040      953.523       627.76
 2041       953.77        627.4
 2042      954.017       626.74
 2043      954.264       625.56
 2044      954.511        624.6
 2045      954.758       623.36
 2046      955.005        622.1
 2047      955.251      621.367
