scansci Spectrometer Data File
--- Measurement Setting ---
Type: Sample Spectrum
Date: Mon Oct 16 16:25:35 2023
User: (Reserved by scansci)
Serial: (Reserved by scansci)
Channel: No. 11
Integration Time: 1
Average: 10
Boxcar: 2
Electrical Dark: No-corrected
Time Normalize: (Reserved by scansci)
Dual-beam: (Reserved by scansci)
Reference Ch: (Reserved by scansci)
--- Measurement Data ---
Pixel   Wavelength   Intensity
    0        344.4        631.9
    1      344.867        632.4
    2      345.334       632.62
    3      345.801       633.06
    4      346.268       632.62
    5      346.735        632.2
    6      347.202        631.9
    7      347.669       631.72
    8      348.135       631.36
    9      348.602       630.46
   10      349.068       629.14
   11      349.535       628.06
   12      350.001        627.1
   13      350.467        626.8
   14      350.933        627.3
   15      351.399       628.02
   16      351.866       628.56
   17      352.331        628.5
   18      352.797       628.02
   19      353.263       627.52
   20      353.729       626.84
   21      354.194       626.44
   22       354.66       626.92
   23      355.126       628.02
   24      355.591        628.9
   25      356.056       629.72
   26      356.522       630.16
   27      356.987          630
   28      357.452       629.24
   29      357.917       628.44
   30      358.382       627.58
   31      358.847       626.56
   32      359.312       626.26
   33      359.776       626.66
   34      360.241       627.36
   35      360.706       627.98
   36       361.17        628.6
   37      361.634       628.52
   38      362.099          628
   39      362.563       627.26
   40      363.027       626.56
   41      363.491       626.36
   42      363.955       626.64
   43      364.419       627.28
   44      364.883       628.12
   45      365.347        629.1
   46      365.811       629.88
   47      366.274       629.76
   48      366.738       628.88
   49      367.201       628.32
   50      367.665       627.78
   51      368.128          627
   52      368.592       626.98
   53      369.055       627.56
   54      369.518        627.7
   55      369.981       627.58
   56      370.444       627.64
   57      370.907       627.76
   58       371.37       627.76
   59      371.832       628.02
   60      372.295        628.2
   61      372.757       627.74
   62       373.22       627.42
   63      373.682       627.06
   64      374.145        626.7
   65      374.607       626.82
   66      375.069       627.42
   67      375.531        627.9
   68      375.993       628.74
   69      376.455       629.52
   70      376.917       629.68
   71      377.379        629.3
   72      377.841        629.2
   73      378.302       629.14
   74      378.764       628.88
   75      379.225       628.76
   76      379.687        629.2
   77      380.148        629.3
   78      380.609       628.96
   79      381.071       628.82
   80      381.532       629.26
   81      381.993       629.72
   82      382.454       629.22
   83      382.915        628.4
   84      383.375       627.74
   85      383.836       627.18
   86      384.297       626.44
   87      384.757        626.4
   88      385.218       627.16
   89      385.678       627.56
   90      386.138       627.54
   91      386.599       627.76
   92      387.059       628.28
   93      387.519       628.72
   94      387.979       629.12
   95      388.439       629.32
   96      388.899       629.44
   97      389.358       629.64
   98      389.818       629.86
   99      390.278       630.18
  100      390.737        630.7
  101      391.197       631.44
  102      391.656       631.98
  103      392.115       632.04
  104      392.575       632.04
  105      393.034       632.22
  106      393.493       631.98
  107      393.952        631.8
  108      394.411       631.52
  109       394.87       630.82
  110      395.328       630.12
  111      395.787       629.88
  112      396.246       629.58
  113      396.704       629.26
  114      397.163       629.16
  115      397.621       628.88
  116      398.079       628.32
  117      398.537        627.7
  118      398.995       627.16
  119      399.454       626.76
  120      399.911       626.48
  121      400.369       626.42
  122      400.827       626.52
  123      401.285       626.94
  124      401.743       627.28
  125        402.2       627.28
  126      402.658        627.2
  127      403.115       626.88
  128      403.572       626.62
  129       404.03       627.04
  130      404.487       627.62
  131      404.944       627.94
  132      405.401        628.1
  133      405.858       627.88
  134      406.315       627.64
  135      406.771       627.72
  136      407.228       627.92
  137      407.685       627.94
  138      408.141       628.22
  139      408.598       628.34
  140      409.054       627.74
  141       409.51          627
  142      409.967       626.78
  143      410.423       626.64
  144      410.879       626.56
  145      411.335        626.9
  146      411.791       627.22
  147      412.246       627.28
  148      412.702       627.14
  149      413.158       627.14
  150      413.613        627.7
  151      414.069       628.26
  152      414.524       628.48
  153       414.98       628.48
  154      415.435       628.28
  155       415.89       627.98
  156      416.345       627.84
  157        416.8       628.18
  158      417.255       628.74
  159       417.71       628.88
  160      418.165       628.74
  161      418.619       628.52
  162      419.074       628.28
  163      419.529        628.6
  164      419.983       629.16
  165      420.437        629.2
  166      420.892       629.42
  167      421.346       629.66
  168        421.8       629.02
  169      422.254       627.76
  170      422.708       627.24
  171      423.162          627
  172      423.616       626.48
  173       424.07       626.56
  174      424.523        627.8
  175      424.977       628.84
  176       425.43       629.36
  177      425.884       629.66
  178      426.337        629.7
  179       426.79       629.28
  180      427.243       628.84
  181      427.697       628.16
  182       428.15        627.8
  183      428.602       627.66
  184      429.055       627.88
  185      429.508       628.18
  186      429.961       628.52
  187      430.413       628.98
  188      430.866       629.16
  189      431.318       628.56
  190      431.771       627.56
  191      432.223       627.12
  192      432.675        627.2
  193      433.127       627.54
  194      433.579       627.98
  195      434.031       628.42
  196      434.483       628.74
  197      434.935       628.68
  198      435.387       628.42
  199      435.838       628.44
  200       436.29       628.94
  201      436.741       629.44
  202      437.193        629.5
  203      437.644       629.44
  204      438.095       629.82
  205      438.546       630.24
  206      438.997        630.3
  207      439.448        630.4
  208      439.899       630.08
  209       440.35       629.12
  210      440.801       627.84
  211      441.251       626.82
  212      441.702       626.04
  213      442.152        626.2
  214      442.603       626.82
  215      443.053       627.66
  216      443.503       628.62
  217      443.954       629.46
  218      444.404       629.58
  219      444.854        629.2
  220      445.304       628.84
  221      445.753        628.7
  222      446.203          629
  223      446.653        629.5
  224      447.102       629.72
  225      447.552       629.74
  226      448.001       629.34
  227      448.451       628.48
  228        448.9       627.58
  229      449.349       626.98
  230      449.798       626.72
  231      450.247       626.82
  232      450.696       627.28
  233      451.145       628.22
  234      451.594       629.48
  235      452.042       630.12
  236      452.491       630.28
  237      452.939       630.28
  238      453.388        629.8
  239      453.836       629.02
  240      454.285        628.5
  241      454.733        628.2
  242      455.181       627.78
  243      455.629       627.34
  244      456.077       627.22
  245      456.525       627.36
  246      456.972       627.62
  247       457.42       628.26
  248      457.868       629.24
  249      458.315       629.86
  250      458.763       630.16
  251       459.21       630.38
  252      459.657        630.1
  253      460.104       629.32
  254      460.552          629
  255      460.999       628.98
  256      461.446        628.9
  257      461.892       629.14
  258      462.339       629.82
  259      462.786       629.92
  260      463.233       629.44
  261      463.679       628.88
  262      464.125       627.92
  263      464.572       627.04
  264      465.018       626.36
  265      465.464       625.94
  266       465.91       625.84
  267      466.356       626.38
  268      466.802       627.04
  269      467.248       627.66
  270      467.694       628.26
  271       468.14       628.72
  272      468.585       629.08
  273      469.031       629.16
  274      469.476       628.72
  275      469.922          628
  276      470.367       627.24
  277      470.812       626.36
  278      471.257       625.56
  279      471.702       625.42
  280      472.147       625.62
  281      472.592       625.76
  282      473.037       625.76
  283      473.482       625.68
  284      473.926       625.82
  285      474.371          626
  286      474.815        626.3
  287      475.259       626.82
  288      475.704       627.24
  289      476.148       627.78
  290      476.592       628.18
  291      477.036        628.3
  292       477.48        628.7
  293      477.924        629.3
  294      478.368       629.26
  295      478.811       629.52
  296      479.255        630.4
  297      479.698          631
  298      480.142       631.12
  299      480.585       631.08
  300      481.028       631.12
  301      481.472       630.56
  302      481.915       629.32
  303      482.358       628.36
  304      482.801       627.92
  305      483.244       627.14
  306      483.686       626.38
  307      484.129       626.02
  308      484.572          626
  309      485.014        626.2
  310      485.456       626.64
  311      485.899       627.26
  312      486.341       628.02
  313      486.783        628.4
  314      487.225        628.1
  315      487.667       627.74
  316      488.109        627.5
  317      488.551       627.34
  318      488.993       627.62
  319      489.434       628.06
  320      489.876        628.2
  321      490.318       628.16
  322      490.759       628.08
  323        491.2       627.66
  324      491.641        627.6
  325      492.083       627.74
  326      492.524       627.62
  327      492.965       627.28
  328      493.406       627.22
  329      493.846       627.02
  330      494.287       626.62
  331      494.728       626.58
  332      495.168       626.84
  333      495.609       626.86
  334      496.049       627.06
  335      496.489       627.96
  336       496.93        628.7
  337       497.37       628.86
  338       497.81       628.82
  339       498.25       628.88
  340       498.69        628.8
  341      499.129       628.98
  342      499.569       629.22
  343      500.009       629.26
  344      500.448       628.94
  345      500.888       628.26
  346      501.327       627.42
  347      501.766        627.1
  348      502.206       627.36
  349      502.645       627.68
  350      503.084       627.94
  351      503.523       628.18
  352      503.961       628.12
  353        504.4       627.82
  354      504.839        627.8
  355      505.277       627.94
  356      505.716       628.24
  357      506.154       628.62
  358      506.593       629.04
  359      507.031       629.16
  360      507.469       629.36
  361      507.907       629.54
  362      508.345       629.96
  363      508.783       630.64
  364      509.221        631.1
  365      509.659       631.24
  366      510.096       631.14
  367      510.534       630.66
  368      510.971       630.08
  369      511.409       630.26
  370      511.846          631
  371      512.283       632.18
  372       512.72       633.62
  373      513.157        634.4
  374      513.594        634.5
  375      514.031       634.72
  376      514.468       634.68
  377      514.905       634.08
  378      515.341       633.92
  379      515.778       634.66
  380      516.214       635.38
  381       516.65       635.94
  382      517.087       636.78
  383      517.523       637.98
  384      517.959       638.68
  385      518.395       638.88
  386      518.831       639.64
  387      519.267       641.08
  388      519.702       642.34
  389      520.138       643.44
  390      520.574       644.24
  391      521.009       644.66
  392      521.444       645.24
  393       521.88       645.88
  394      522.315       646.22
  395       522.75       646.64
  396      523.185       647.04
  397       523.62       647.12
  398      524.055       647.44
  399       524.49       648.36
  400      524.924       649.46
  401      525.359       650.42
  402      525.794       651.26
  403      526.228        651.9
  404      526.662       652.08
  405      527.097       652.04
  406      527.531        652.2
  407      527.965       652.04
  408      528.399       651.78
  409      528.833       651.98
  410      529.267       652.68
  411        529.7       653.54
  412      530.134       654.66
  413      530.568       655.58
  414      531.001       655.94
  415      531.434       655.84
  416      531.868       655.44
  417      532.301       655.72
  418      532.734       656.56
  419      533.167       657.42
  420        533.6       658.32
  421      534.033       659.24
  422      534.466        659.6
  423      534.898          660
  424      535.331       660.74
  425      535.763       661.66
  426      536.196       662.82
  427      536.628       664.18
  428       537.06       665.32
  429      537.493       666.44
  430      537.925       667.56
  431      538.357        668.5
  432      538.788       668.84
  433       539.22       668.86
  434      539.652       668.96
  435      540.084       669.26
  436      540.515       669.14
  437      540.947       668.98
  438      541.378       669.26
  439      541.809       669.84
  440       542.24       670.22
  441      542.672       670.88
  442      543.103       672.14
  443      543.533       673.36
  444      543.964       674.32
  445      544.395       674.96
  446      544.826       675.42
  447      545.256       675.62
  448      545.687       675.82
  449      546.117       676.06
  450      546.547       676.52
  451      546.978       677.24
  452      547.408       677.82
  453      547.838        678.2
  454      548.268       678.68
  455      548.698          679
  456      549.127        679.3
  457      549.557       679.94
  458      549.987        680.6
  459      550.416       680.78
  460      550.846       681.62
  461      551.275        682.9
  462      551.704       683.46
  463      552.133       683.68
  464      552.562       684.08
  465      552.991       684.28
  466       553.42       684.18
  467      553.849       684.86
  468      554.278       686.02
  469      554.706       687.46
  470      555.135       689.04
  471      555.563       690.58
  472      555.991       691.74
  473       556.42       692.64
  474      556.848       693.48
  475      557.276       693.82
  476      557.704        694.5
  477      558.132       695.22
  478       558.56       695.86
  479      558.987       696.68
  480      559.415       697.82
  481      559.843        698.5
  482       560.27       699.28
  483      560.697       700.64
  484      561.125       702.04
  485      561.552        703.7
  486      561.979        705.6
  487      562.406       707.48
  488      562.833       709.02
  489       563.26       710.12
  490      563.686       711.56
  491      564.113       713.14
  492       564.54       714.64
  493      564.966       716.22
  494      565.392       717.78
  495      565.819        718.9
  496      566.245       719.72
  497      566.671       720.66
  498      567.097       721.68
  499      567.523       723.02
  500      567.949       724.28
  501      568.374       725.76
  502        568.8        727.4
  503      569.226       729.06
  504      569.651       730.44
  505      570.077       731.72
  506      570.502       733.52
  507      570.927       735.58
  508      571.352        737.3
  509      571.777       739.38
  510      572.202       742.26
  511      572.627       744.44
  512      573.052       745.94
  513      573.476       747.22
  514      573.901       748.22
  515      574.325       748.68
  516       574.75       748.96
  517      575.174        749.8
  518      575.598       752.02
  519      576.022       755.24
  520      576.446       759.06
  521       576.87       763.62
  522      577.294       767.58
  523      577.718        769.9
  524      578.142       771.04
  525      578.565          772
  526      578.989       772.88
  527      579.412       774.44
  528      579.835       776.28
  529      580.259       778.36
  530      580.682       780.06
  531      581.105       781.48
  532      581.528       782.92
  533      581.951       784.86
  534      582.373       787.06
  535      582.796        789.9
  536      583.219       793.28
  537      583.641       796.12
  538      584.063       798.26
  539      584.486       799.92
  540      584.908       801.08
  541       585.33       801.52
  542      585.752       801.82
  543      586.174       802.96
  544      586.596       804.62
  545      587.018        805.9
  546      587.439       808.18
  547      587.861        811.3
  548      588.282       814.16
  549      588.704       816.78
  550      589.125       819.62
  551      589.546       821.58
  552      589.967        823.1
  553      590.388       824.64
  554      590.809       826.28
  555       591.23       828.36
  556      591.651       830.52
  557      592.071        832.4
  558      592.492       834.74
  559      592.912       837.44
  560      593.333       839.54
  561      593.753       841.52
  562      594.173       844.18
  563      594.593       846.38
  564      595.013       847.34
  565      595.433       847.58
  566      595.853       847.88
  567      596.273       847.82
  568      596.693       847.48
  569      597.112       847.44
  570      597.532       848.02
  571      597.951        848.5
  572       598.37       849.28
  573      598.789        850.8
  574      599.208       852.36
  575      599.627       854.28
  576      600.046       856.54
  577      600.465       857.52
  578      600.884       857.06
  579      601.303       856.84
  580      601.721       856.38
  581      602.139       855.82
  582      602.558       856.22
  583      602.976       857.26
  584      603.394       858.22
  585      603.812        859.4
  586       604.23       860.74
  587      604.648        862.1
  588      605.066       863.14
  589      605.484       864.38
  590      605.901        864.6
  591      606.319       863.84
  592      606.736       863.12
  593      607.154       863.36
  594      607.571       863.72
  595      607.988       864.34
  596      608.405       865.38
  597      608.822        866.6
  598      609.239       867.38
  599      609.656       867.34
  600      610.072       867.14
  601      610.489       866.58
  602      610.905       865.54
  603      611.322       864.68
  604      611.738       864.82
  605      612.154        865.3
  606       612.57       866.38
  607      612.986       867.44
  608      613.402       867.96
  609      613.818       868.08
  610      614.234       868.64
  611       614.65       869.28
  612      615.065       869.76
  613      615.481       870.26
  614      615.896       870.36
  615      616.311        869.8
  616      616.727        868.7
  617      617.142        867.5
  618      617.557        866.4
  619      617.972        865.8
  620      618.386       865.78
  621      618.801       866.46
  622      619.216       867.66
  623       619.63       868.54
  624      620.045       868.88
  625      620.459        868.3
  626      620.873       866.98
  627      621.287       865.82
  628      621.702       865.26
  629      622.116        864.8
  630      622.529       865.02
  631      622.943       865.34
  632      623.357        864.7
  633      623.771       863.44
  634      624.184       862.48
  635      624.597       861.62
  636      625.011       860.94
  637      625.424       860.58
  638      625.837       860.26
  639       626.25       859.78
  640      626.663       859.38
  641      627.076       858.94
  642      627.489       858.14
  643      627.901       857.82
  644      628.314       857.94
  645      628.726       857.26
  646      629.139       856.38
  647      629.551       856.52
  648      629.963       856.68
  649      630.375       856.08
  650      630.787       855.26
  651      631.199       854.08
  652      631.611       851.92
  653      632.023       849.72
  654      632.434       848.42
  655      632.846       847.76
  656      633.257       847.94
  657      633.669       848.88
  658       634.08       849.32
  659      634.491       848.64
  660      634.902       847.98
  661      635.313       847.24
  662      635.724        846.1
  663      636.135       845.68
  664      636.545        845.9
  665      636.956        845.9
  666      637.366       844.94
  667      637.777        843.3
  668      638.187       841.62
  669      638.597       839.94
  670      639.007       838.52
  671      639.417          838
  672      639.827       838.54
  673      640.237       838.98
  674      640.647        839.1
  675      641.056       838.76
  676      641.466       837.64
  677      641.875       835.64
  678      642.285       832.78
  679      642.694       829.96
  680      643.103        827.4
  681      643.512       824.98
  682      643.921       822.56
  683       644.33       820.08
  684      644.739       817.72
  685      645.148        815.7
  686      645.556        813.9
  687      645.965       812.14
  688      646.373       810.68
  689      646.781       809.48
  690      647.189       808.46
  691      647.598       807.52
  692      648.006        806.8
  693      648.414       806.58
  694      648.821          806
  695      649.229       804.76
  696      649.637       803.84
  697      650.044        803.3
  698      650.452       801.94
  699      650.859       800.08
  700      651.266       798.94
  701      651.673       797.64
  702       652.08       795.58
  703      652.487       794.14
  704      652.894       793.24
  705      653.301       791.86
  706      653.708       790.52
  707      654.114       789.88
  708      654.521        789.5
  709      654.927       789.02
  710      655.333       788.06
  711       655.74       786.28
  712      656.146          784
  713      656.552       781.56
  714      656.958       779.12
  715      657.363          777
  716      657.769       775.26
  717      658.175       773.46
  718       658.58       771.64
  719      658.986       769.48
  720      659.391       767.18
  721      659.796       764.92
  722      660.201       762.64
  723      660.606       760.52
  724      661.011       759.08
  725      661.416       757.76
  726      661.821       756.48
  727      662.225       755.34
  728       662.63       753.76
  729      663.034        752.4
  730      663.439       751.46
  731      663.843       750.46
  732      664.247        749.6
  733      664.651       748.74
  734      665.055       747.46
  735      665.459       746.04
  736      665.863       745.04
  737      666.267       743.82
  738       666.67       742.56
  739      667.074        741.5
  740      667.477       740.38
  741       667.88       739.44
  742      668.283        738.9
  743      668.687        738.1
  744       669.09       736.58
  745      669.492       734.76
  746      669.895       732.86
  747      670.298       731.16
  748      670.701       730.34
  749      671.103        730.2
  750      671.505       730.44
  751      671.908       730.06
  752       672.31       728.76
  753      672.712       727.02
  754      673.114       725.24
  755      673.516       723.26
  756      673.918       721.34
  757       674.32       720.28
  758      674.721       719.58
  759      675.123       718.62
  760      675.524        717.6
  761      675.926       716.66
  762      676.327        715.4
  763      676.728       714.06
  764      677.129        712.7
  765       677.53       711.02
  766      677.931       710.06
  767      678.332       709.78
  768      678.732       709.36
  769      679.133       709.08
  770      679.533        709.8
  771      679.934        709.9
  772      680.334        708.8
  773      680.734       707.28
  774      681.134       705.54
  775      681.534       703.34
  776      681.934       701.78
  777      682.334          701
  778      682.733       700.48
  779      683.133       700.24
  780      683.532       700.32
  781      683.932       699.64
  782      684.331        698.7
  783       684.73       698.02
  784      685.129       697.24
  785      685.528       696.52
  786      685.927       696.34
  787      686.326       696.06
  788      686.725       695.44
  789      687.123        694.6
  790      687.522       693.58
  791       687.92        692.1
  792      688.319       690.76
  793      688.717       689.84
  794      689.115       689.46
  795      689.513       689.14
  796      689.911        689.3
  797      690.309        689.2
  798      690.706       688.72
  799      691.104          688
  800      691.501       686.92
  801      691.899        685.5
  802      692.296       684.72
  803      692.693       684.34
  804       693.09       684.14
  805      693.488        684.5
  806      693.884       684.96
  807      694.281       685.22
  808      694.678       685.68
  809      695.075       685.96
  810      695.471       685.56
  811      695.868       684.88
  812      696.264       683.94
  813       696.66       682.52
  814      697.056       680.98
  815      697.452       679.42
  816      697.848       677.88
  817      698.244        676.9
  818       698.64       676.74
  819      699.035        676.9
  820      699.431       677.26
  821      699.826       678.02
  822      700.222       678.12
  823      700.617       676.88
  824      701.012       675.24
  825      701.407       673.58
  826      701.802       671.72
  827      702.197       670.04
  828      702.592       669.02
  829      702.986       668.28
  830      703.381       667.92
  831      703.775       668.02
  832       704.17       668.44
  833      704.564       668.28
  834      704.958       667.78
  835      705.352        667.2
  836      705.746       666.26
  837       706.14       665.04
  838      706.533       664.16
  839      706.927       663.62
  840      707.321       663.22
  841      707.714       662.78
  842      708.107       662.24
  843      708.501       661.58
  844      708.894       660.74
  845      709.287       659.74
  846       709.68       659.26
  847      710.073       659.22
  848      710.465       659.38
  849      710.858       659.44
  850      711.251       659.62
  851      711.643       659.36
  852      712.035       658.92
  853      712.428        658.5
  854       712.82       658.28
  855      713.212       658.02
  856      713.604       657.74
  857      713.995       657.12
  858      714.387        656.5
  859      714.779        656.2
  860       715.17       655.84
  861      715.562       655.74
  862      715.953          656
  863      716.344       655.94
  864      716.735        655.5
  865      717.127        655.1
  866      717.517       654.68
  867      717.908       654.08
  868      718.299       653.18
  869       718.69        651.9
  870       719.08       650.46
  871      719.471       649.08
  872      719.861        648.1
  873      720.251       648.12
  874      720.641       648.84
  875      721.031       649.98
  876      721.421       650.84
  877      721.811       651.16
  878      722.201       651.06
  879       722.59       650.48
  880       722.98        649.4
  881      723.369       648.22
  882      723.759       647.68
  883      724.148       647.38
  884      724.537       646.92
  885      724.926       646.44
  886      725.315       646.26
  887      725.704       646.04
  888      726.092        645.6
  889      726.481       645.42
  890       726.87       644.96
  891      727.258       644.48
  892      727.646       643.98
  893      728.034       643.64
  894      728.423        643.6
  895      728.811       643.32
  896      729.198          643
  897      729.586       643.12
  898      729.974       643.68
  899      730.362       644.18
  900      730.749        645.2
  901      731.136       645.64
  902      731.524       645.06
  903      731.911        643.8
  904      732.298       642.06
  905      732.685        640.6
  906      733.072       639.74
  907      733.459       638.96
  908      733.845       638.18
  909      734.232        637.7
  910      734.618       637.02
  911      735.005       636.22
  912      735.391       635.82
  913      735.777          636
  914      736.163        636.3
  915      736.549       636.52
  916      736.935       637.12
  917      737.321       637.94
  918      737.706       638.36
  919      738.092        638.4
  920      738.477       638.86
  921      738.863        639.4
  922      739.248       639.46
  923      739.633       639.32
  924      740.018       639.34
  925      740.403       638.74
  926      740.788       638.04
  927      741.173       638.02
  928      741.557       637.84
  929      741.942       637.48
  930      742.326        637.6
  931      742.711       637.08
  932      743.095       635.96
  933      743.479       635.64
  934      743.863       636.42
  935      744.247       637.14
  936      744.631       637.76
  937      745.015       638.06
  938      745.398       637.84
  939      745.782        637.2
  940      746.165        636.4
  941      746.548       635.56
  942      746.932       635.14
  943      747.315       635.18
  944      747.698       635.02
  945      748.081        635.1
  946      748.463       635.24
  947      748.846        635.1
  948      749.229       635.12
  949      749.611          635
  950      749.993        634.5
  951      750.376       634.48
  952      750.758       635.02
  953       751.14        634.9
  954      751.522       634.96
  955      751.904       634.94
  956      752.285       634.06
  957      752.667       632.96
  958      753.049       632.38
  959       753.43       631.86
  960      753.811       631.68
  961      754.193        632.3
  962      754.574       632.98
  963      754.955       633.18
  964      755.336       633.22
  965      755.717       633.14
  966      756.097       633.02
  967      756.478       632.62
  968      756.858       632.56
  969      757.239       632.64
  970      757.619       633.04
  971      757.999       633.52
  972      758.379       634.04
  973      758.759       634.02
  974      759.139       633.72
  975      759.519       633.56
  976      759.899       633.78
  977      760.278          634
  978      760.658       634.06
  979      761.037       634.26
  980      761.417       633.76
  981      761.796        632.5
  982      762.175        631.1
  983      762.554        630.3
  984      762.933       629.78
  985      763.311        629.4
  986       763.69        629.3
  987      764.068       629.84
  988      764.447       630.54
  989      764.825        631.1
  990      765.203       631.88
  991      765.582       632.48
  992       765.96       632.38
  993      766.338       631.84
  994      766.715       630.86
  995      767.093        629.9
  996      767.471       629.34
  997      767.848        629.1
  998      768.226       629.06
  999      768.603       629.66
 1000       768.98       630.38
 1001      769.357       630.86
 1002      769.734       631.42
 1003      770.111       632.24
 1004      770.488        632.7
 1005      770.864       632.82
 1006      771.241        633.1
 1007      771.617       633.14
 1008      771.994       632.86
 1009       772.37       632.62
 1010      772.746       632.66
 1011      773.122        632.9
 1012      773.498       633.38
 1013      773.874        633.6
 1014       774.25       633.62
 1015      774.625       633.34
 1016      775.001       632.72
 1017      775.376          632
 1018      775.751        631.4
 1019      776.127       631.02
 1020      776.502       630.96
 1021      776.877       630.84
 1022      777.252       630.84
 1023      777.626       631.18
 1024      778.001       631.56
 1025      778.375       631.32
 1026       778.75       630.62
 1027      779.124        630.1
 1028      779.499       629.58
 1029      779.873       628.66
 1030      780.247        628.3
 1031      780.621        628.6
 1032      780.994       628.58
 1033      781.368       628.64
 1034      781.742       629.34
 1035      782.115        629.8
 1036      782.489        630.2
 1037      782.862       630.88
 1038      783.235       631.36
 1039      783.608          631
 1040      783.981       630.76
 1041      784.354          630
 1042      784.727          629
 1043        785.1       628.44
 1044      785.472       628.68
 1045      785.845        629.3
 1046      786.217       630.66
 1047      786.589       631.68
 1048      786.961       631.96
 1049      787.333       632.12
 1050      787.705       631.88
 1051      788.077          631
 1052      788.449       629.82
 1053       788.82       628.92
 1054      789.192       628.02
 1055      789.563       627.16
 1056      789.934       626.46
 1057      790.306       626.36
 1058      790.677       626.36
 1059      791.048       626.36
 1060      791.419       626.64
 1061      791.789       627.56
 1062       792.16       628.92
 1063       792.53        630.3
 1064      792.901       631.42
 1065      793.271       631.98
 1066      793.641          632
 1067      794.012       631.54
 1068      794.382       630.96
 1069      794.751       630.54
 1070      795.121       630.86
 1071      795.491       631.42
 1072      795.861       631.76
 1073       796.23       631.98
 1074      796.599       632.12
 1075      796.969       631.58
 1076      797.338       630.96
 1077      797.707       630.82
 1078      798.076       630.78
 1079      798.445       630.98
 1080      798.813       631.78
 1081      799.182       632.28
 1082       799.55       632.58
 1083      799.919       632.68
 1084      800.287        632.4
 1085      800.655       631.34
 1086      801.023       630.14
 1087      801.391        628.9
 1088      801.759       628.16
 1089      802.127       627.86
 1090      802.495       628.06
 1091      802.862       628.76
 1092       803.23       629.42
 1093      803.597        629.3
 1094      803.964       628.78
 1095      804.331       628.48
 1096      804.698        628.1
 1097      805.065       627.54
 1098      805.432       627.78
 1099      805.799       628.38
 1100      806.165        629.1
 1101      806.532       629.78
 1102      806.898        630.2
 1103      807.264          630
 1104      807.631       629.68
 1105      807.997       629.22
 1106      808.363       628.74
 1107      808.728        628.9
 1108      809.094       629.32
 1109       809.46        629.6
 1110      809.825       629.68
 1111      810.191        629.8
 1112      810.556       629.68
 1113      810.921        629.6
 1114      811.286       629.34
 1115      811.651       628.66
 1116      812.016       628.06
 1117      812.381        627.6
 1118      812.745       626.86
 1119       813.11       626.36
 1120      813.474       626.16
 1121      813.839        625.8
 1122      814.203        625.6
 1123      814.567          626
 1124      814.931        626.8
 1125      815.295        627.9
 1126      815.659       629.06
 1127      816.022       630.24
 1128      816.386       630.96
 1129      816.749        631.4
 1130      817.113       631.52
 1131      817.476       631.32
 1132      817.839       630.58
 1133      818.202       629.94
 1134      818.565       629.44
 1135      818.928       629.04
 1136      819.291       628.78
 1137      819.653       629.12
 1138      820.016       629.76
 1139      820.378       629.92
 1140       820.74       630.06
 1141      821.102       630.44
 1142      821.464        630.2
 1143      821.826       629.44
 1144      822.188          629
 1145       822.55       628.82
 1146      822.912        628.7
 1147      823.273        628.7
 1148      823.634       629.34
 1149      823.996       630.36
 1150      824.357       630.84
 1151      824.718       630.48
 1152      825.079        630.3
 1153       825.44       630.42
 1154      825.801       629.88
 1155      826.161       628.68
 1156      826.522       627.76
 1157      826.882       627.22
 1158      827.242          626
 1159      827.603       624.96
 1160      827.963       625.18
 1161      828.323       626.44
 1162      828.682       627.52
 1163      829.042       628.28
 1164      829.402       628.84
 1165      829.761       629.18
 1166      830.121       629.02
 1167       830.48        628.6
 1168      830.839        628.5
 1169      831.198        628.8
 1170      831.557       629.18
 1171      831.916       629.58
 1172      832.275       629.96
 1173      832.634       630.06
 1174      832.992       629.96
 1175      833.351        629.5
 1176      833.709        628.8
 1177      834.067       628.08
 1178      834.425       627.54
 1179      834.783        626.9
 1180      835.141       626.62
 1181      835.499       626.68
 1182      835.857       626.94
 1183      836.214       627.58
 1184      836.572       628.56
 1185      836.929        628.8
 1186      837.286        628.7
 1187      837.644       628.26
 1188      838.001        627.6
 1189      838.357       626.64
 1190      838.714       626.08
 1191      839.071       625.96
 1192      839.428       626.72
 1193      839.784       627.52
 1194       840.14       628.34
 1195      840.497       629.24
 1196      840.853       630.06
 1197      841.209       630.22
 1198      841.565        630.1
 1199       841.92       630.02
 1200      842.276       629.62
 1201      842.632       629.28
 1202      842.987       629.22
 1203      843.343       628.88
 1204      843.698       628.02
 1205      844.053        627.3
 1206      844.408       626.18
 1207      844.763       624.76
 1208      845.118       624.24
 1209      845.472        624.7
 1210      845.827       625.26
 1211      846.181        626.3
 1212      846.536       627.58
 1213       846.89       628.24
 1214      847.244       628.66
 1215      847.598       629.14
 1216      847.952       628.92
 1217      848.306       628.46
 1218       848.66       628.16
 1219      849.013       627.72
 1220      849.367       627.82
 1221       849.72       628.14
 1222      850.073       628.32
 1223      850.427        628.4
 1224       850.78       628.46
 1225      851.133       628.18
 1226      851.485          628
 1227      851.838        627.7
 1228      852.191       627.52
 1229      852.543       627.54
 1230      852.896        627.6
 1231      853.248       627.86
 1232        853.6        628.5
 1233      853.952       629.38
 1234      854.304          630
 1235      854.656       630.24
 1236      855.007        630.1
 1237      855.359       630.08
 1238       855.71       629.98
 1239      856.062        629.8
 1240      856.413        629.8
 1241      856.764       629.56
 1242      857.115       628.98
 1243      857.466       628.46
 1244      857.817       628.48
 1245      858.168       628.82
 1246      858.518       629.64
 1247      858.869       630.64
 1248      859.219       631.58
 1249      859.569       632.12
 1250       859.92        632.1
 1251       860.27       631.42
 1252      860.619        630.5
 1253      860.969       629.64
 1254      861.319       629.16
 1255      861.669       628.84
 1256      862.018       628.74
 1257      862.367          629
 1258      862.717       628.98
 1259      863.066       628.58
 1260      863.415       628.62
 1261      863.764       629.48
 1262      864.112       630.18
 1263      864.461       630.44
 1264       864.81       630.54
 1265      865.158        630.3
 1266      865.507       629.46
 1267      865.855       628.84
 1268      866.203       628.74
 1269      866.551       628.72
 1270      866.899        629.1
 1271      867.247       629.34
 1272      867.594       629.24
 1273      867.942       629.54
 1274      868.289       630.06
 1275      868.637       630.18
 1276      868.984       630.64
 1277      869.331       631.24
 1278      869.678       631.06
 1279      870.025       630.92
 1280      870.372        630.7
 1281      870.718       629.96
 1282      871.065       628.84
 1283      871.411       628.12
 1284      871.758        627.4
 1285      872.104       627.18
 1286       872.45       627.68
 1287      872.796       628.36
 1288      873.142        628.6
 1289      873.488       628.24
 1290      873.833       627.36
 1291      874.179        626.5
 1292      874.524       625.88
 1293      874.869       625.44
 1294      875.215       625.66
 1295       875.56       626.58
 1296      875.905       627.46
 1297       876.25       628.38
 1298      876.594       629.58
 1299      876.939        630.4
 1300      877.283       630.58
 1301      877.628       630.42
 1302      877.972        630.2
 1303      878.316       629.94
 1304       878.66       629.66
 1305      879.004       629.12
 1306      879.348       628.04
 1307      879.692       627.24
 1308      880.035       626.76
 1309      880.379       626.56
 1310      880.722        626.5
 1311      881.066          627
 1312      881.409       627.72
 1313      881.752       627.86
 1314      882.095       627.72
 1315      882.438       628.24
 1316       882.78       628.76
 1317      883.123       628.62
 1318      883.465       628.76
 1319      883.808          629
 1320       884.15       628.66
 1321      884.492       628.68
 1322      884.834       629.16
 1323      885.176        629.6
 1324      885.518       630.14
 1325      885.859       630.62
 1326      886.201       630.38
 1327      886.542       629.96
 1328      886.884        629.7
 1329      887.225       628.88
 1330      887.566       627.98
 1331      887.907       627.86
 1332      888.248       627.66
 1333      888.589        627.4
 1334      888.929       627.62
 1335       889.27       628.32
 1336       889.61       628.84
 1337      889.951       629.36
 1338      890.291       629.62
 1339      890.631       629.72
 1340      890.971       629.58
 1341      891.311       629.28
 1342       891.65       628.76
 1343       891.99       628.54
 1344      892.329        628.7
 1345      892.669        628.6
 1346      893.008       628.06
 1347      893.347       627.52
 1348      893.686       627.14
 1349      894.025       626.96
 1350      894.364        626.6
 1351      894.703        626.3
 1352      895.041       626.34
 1353       895.38       626.68
 1354      895.718          627
 1355      896.056       627.24
 1356      896.395       627.74
 1357      896.733       628.12
 1358      897.071       627.84
 1359      897.408       627.26
 1360      897.746       627.28
 1361      898.084       627.64
 1362      898.421       627.98
 1363      898.758        628.2
 1364      899.095       628.52
 1365      899.433        628.7
 1366       899.77        628.2
 1367      900.106       627.42
 1368      900.443       626.64
 1369       900.78       625.86
 1370      901.116       625.74
 1371      901.453       626.36
 1372      901.789        627.5
 1373      902.125       629.02
 1374      902.461       630.48
 1375      902.797       630.98
 1376      903.133       630.82
 1377      903.469       630.42
 1378      903.804       629.32
 1379       904.14       627.72
 1380      904.475        626.5
 1381       904.81          626
 1382      905.146       625.76
 1383      905.481       626.06
 1384      905.815        626.9
 1385       906.15       627.92
 1386      906.485       628.86
 1387      906.819       629.72
 1388      907.154       630.26
 1389      907.488        630.3
 1390      907.822       630.56
 1391      908.156       630.72
 1392       908.49       631.02
 1393      908.824          632
 1394      909.158        632.7
 1395      909.492       632.34
 1396      909.825       631.94
 1397      910.159       631.24
 1398      910.492       629.96
 1399      910.825        629.2
 1400      911.158        628.9
 1401      911.491       628.36
 1402      911.824       627.68
 1403      912.157        627.4
 1404      912.489       627.66
 1405      912.822       628.32
 1406      913.154       628.72
 1407      913.486       629.26
 1408      913.818       629.86
 1409       914.15        630.1
 1410      914.482       630.04
 1411      914.814        630.1
 1412      915.146       630.14
 1413      915.477        629.9
 1414      915.809       629.74
 1415       916.14       629.26
 1416      916.471       628.56
 1417      916.802       627.84
 1418      917.133       627.36
 1419      917.464        626.9
 1420      917.795       626.98
 1421      918.125       627.86
 1422      918.456       629.08
 1423      918.786       630.56
 1424      919.116       631.82
 1425      919.446       632.56
 1426      919.776       632.84
 1427      920.106       632.76
 1428      920.436        631.7
 1429      920.766       630.08
 1430      921.095        628.9
 1431      921.425       628.08
 1432      921.754       627.34
 1433      922.083        627.2
 1434      922.412       627.82
 1435      922.741       628.44
 1436       923.07       629.22
 1437      923.399       630.18
 1438      923.727       630.84
 1439      924.056       631.28
 1440      924.384       631.34
 1441      924.713       630.32
 1442      925.041       628.68
 1443      925.369       627.58
 1444      925.697       626.66
 1445      926.024       626.12
 1446      926.352        626.6
 1447       926.68       627.44
 1448      927.007       627.66
 1449      927.334        628.1
 1450      927.662        628.8
 1451      927.989       629.18
 1452      928.316       629.76
 1453      928.643       630.86
 1454      928.969       631.14
 1455      929.296       630.86
 1456      929.622       630.52
 1457      929.949       629.88
 1458      930.275       628.56
 1459      930.601       627.32
 1460      930.927        626.5
 1461      931.253       626.16
 1462      931.579        626.5
 1463      931.905       627.32
 1464       932.23       628.36
 1465      932.556        629.4
 1466      932.881       629.84
 1467      933.206       629.64
 1468      933.531       629.26
 1469      933.856        628.6
 1470      934.181       627.48
 1471      934.506       626.86
 1472       934.83       626.56
 1473      935.155        626.4
 1474      935.479       626.62
 1475      935.803        627.3
 1476      936.128        627.5
 1477      936.452       627.38
 1478      936.775       627.32
 1479      937.099       627.14
 1480      937.423       626.84
 1481      937.746        626.7
 1482       938.07          627
 1483      938.393       627.74
 1484      938.716       629.06
 1485      939.039       630.28
 1486      939.362       631.02
 1487      939.685       631.26
 1488      940.008       631.12
 1489      940.331       630.94
 1490      940.653       630.44
 1491      940.975       629.82
 1492      941.298       629.16
 1493       941.62        628.1
 1494      941.942       626.92
 1495      942.264       626.26
 1496      942.585       626.14
 1497      942.907        626.3
 1498      943.229       626.96
 1499       943.55       627.64
 1500      943.871        628.5
 1501      944.192       629.42
 1502      944.513       629.66
 1503      944.834        629.1
 1504      945.155       628.32
 1505      945.476       627.74
 1506      945.796       627.24
 1507      946.117        627.3
 1508      946.437       627.92
 1509      946.757       628.46
 1510      947.078       628.28
 1511      947.398       628.32
 1512      947.717       628.74
 1513      948.037        629.3
 1514      948.357       629.86
 1515      948.676       630.44
 1516      948.996        630.2
 1517      949.315       629.58
 1518      949.634       628.82
 1519      949.953       628.32
 1520      950.272       628.48
 1521      950.591       629.38
 1522      950.909       630.52
 1523      951.228       631.78
 1524      951.546       632.82
 1525      951.865        633.7
 1526      952.183       634.16
 1527      952.501       633.86
 1528      952.819       632.52
 1529      953.137       630.76
 1530      953.454       628.84
 1531      953.772       627.36
 1532      954.089       626.88
 1533      954.407       627.64
 1534      954.724       628.62
 1535      955.041       629.16
 1536      955.358       629.64
 1537      955.675       630.12
 1538      955.992       630.36
 1539      956.308       630.26
 1540      956.625       629.98
 1541      956.941       629.52
 1542      957.257        628.6
 1543      957.574       627.58
 1544       957.89       626.72
 1545      958.206       625.98
 1546      958.521       625.24
 1547      958.837       624.98
 1548      959.152       625.24
 1549      959.468       626.04
 1550      959.783       627.08
 1551      960.098       628.18
 1552      960.413       628.94
 1553      960.728        629.3
 1554      961.043       629.48
 1555      961.358       629.98
 1556      961.672       630.32
 1557      961.987       630.32
 1558      962.301       630.18
 1559      962.615       630.04
 1560       962.93       629.56
 1561      963.244        629.3
 1562      963.557       628.98
 1563      963.871       628.72
 1564      964.185       628.58
 1565      964.498       628.62
 1566      964.812       628.14
 1567      965.125        627.7
 1568      965.438       627.56
 1569      965.751       627.44
 1570      966.064       627.28
 1571      966.377       627.58
 1572      966.689        628.2
 1573      967.002        628.7
 1574      967.314        628.8
 1575      967.626       628.48
 1576      967.939       628.06
 1577      968.251       627.28
 1578      968.563       626.16
 1579      968.874       625.12
 1580      969.186       624.28
 1581      969.498       623.86
 1582      969.809       623.56
 1583       970.12       622.96
 1584      970.431       622.46
 1585      970.743       622.72
 1586      971.053        623.3
 1587      971.364       623.88
 1588      971.675       625.06
 1589      971.986       626.18
 1590      972.296       626.66
 1591      972.606       626.54
 1592      972.917        626.6
 1593      973.227       626.28
 1594      973.537       626.36
 1595      973.847       627.14
 1596      974.156       628.02
 1597      974.466        628.6
 1598      974.775       629.48
 1599      975.085       630.32
 1600      975.394       630.16
 1601      975.703       629.54
 1602      976.012       628.92
 1603      976.321       628.36
 1604       976.63       628.06
 1605      976.938        627.7
 1606      977.247       627.34
 1607      977.555       627.84
 1608      977.863       628.42
 1609      978.172       628.58
 1610       978.48        629.1
 1611      978.787       629.54
 1612      979.095       629.46
 1613      979.403       629.68
 1614       979.71        629.9
 1615      980.018       630.08
 1616      980.325       630.62
 1617      980.632       630.84
 1618      980.939       630.38
 1619      981.246       629.78
 1620      981.553       629.22
 1621       981.86       628.74
 1622      982.166       628.66
 1623      982.473       628.82
 1624      982.779       629.42
 1625      983.085       630.44
 1626      983.391       630.94
 1627      983.697          631
 1628      984.003       630.96
 1629      984.309       630.08
 1630      984.614       628.78
 1631       984.92        627.8
 1632      985.225        627.2
 1633       985.53       626.84
 1634      985.835       627.16
 1635       986.14       627.62
 1636      986.445       628.28
 1637       986.75        628.9
 1638      987.054       629.24
 1639      987.359        629.3
 1640      987.663       628.96
 1641      987.967       628.56
 1642      988.271       628.14
 1643      988.575       628.06
 1644      988.879       628.24
 1645      989.183       628.42
 1646      989.487        628.6
 1647       989.79        628.9
 1648      990.093       628.76
 1649      990.397       628.44
 1650        990.7       628.62
 1651      991.003        628.9
 1652      991.306       628.76
 1653      991.608       628.46
 1654      991.911       628.42
 1655      992.213       628.46
 1656      992.516       628.48
 1657      992.818       628.74
 1658       993.12       629.36
 1659      993.422       629.58
 1660      993.724       629.54
 1661      994.026        629.5
 1662      994.327       629.38
 1663      994.629       629.18
 1664       994.93       629.14
 1665      995.232       629.04
 1666      995.533       628.66
 1667      995.834       628.28
 1668      996.135       628.26
 1669      996.435       628.16
 1670      996.736       628.44
 1671      997.036       628.72
 1672      997.337       628.78
 1673      997.637       629.02
 1674      997.937       629.52
 1675      998.237        629.5
 1676      998.537       629.92
 1677      998.837       630.84
 1678      999.137        630.9
 1679      999.436       630.68
 1680      999.735       630.88
 1681      1000.03       630.64
 1682      1000.33        629.9
 1683      1000.63        629.4
 1684      1000.93        628.8
 1685      1001.23        627.9
 1686      1001.53        627.4
 1687      1001.83       627.56
 1688      1002.13       628.32
 1689      1002.42        629.1
 1690      1002.72       629.56
 1691      1003.02       629.36
 1692      1003.32       628.68
 1693      1003.62       627.62
 1694      1003.91       626.96
 1695      1004.21       626.98
 1696      1004.51        627.5
 1697      1004.81       628.04
 1698       1005.1        628.7
 1699       1005.4       629.16
 1700       1005.7       629.48
 1701      1005.99       629.96
 1702      1006.29       630.92
 1703      1006.59       632.06
 1704      1006.88        633.2
 1705      1007.18        633.4
 1706      1007.48       632.82
 1707      1007.77       631.78
 1708      1008.07       630.26
 1709      1008.36       628.84
 1710      1008.66       628.26
 1711      1008.95       628.12
 1712      1009.25       628.14
 1713      1009.55        628.6
 1714      1009.84          629
 1715      1010.14       629.06
 1716      1010.43       629.12
 1717      1010.73       629.18
 1718      1011.02        628.7
 1719      1011.31       627.92
 1720      1011.61       627.36
 1721       1011.9       626.94
 1722       1012.2        626.7
 1723      1012.49        626.3
 1724      1012.79       626.26
 1725      1013.08       626.74
 1726      1013.37       627.16
 1727      1013.67       627.06
 1728      1013.96       627.24
 1729      1014.25       626.84
 1730      1014.55       625.94
 1731      1014.84       625.74
 1732      1015.13       625.86
 1733      1015.42       626.16
 1734      1015.72       626.92
 1735      1016.01       627.36
 1736       1016.3       626.86
 1737      1016.59       626.68
 1738      1016.89       626.62
 1739      1017.18       626.44
 1740      1017.47       627.02
 1741      1017.76       628.04
 1742      1018.05        628.7
 1743      1018.35       629.46
 1744      1018.64       630.48
 1745      1018.93       630.94
 1746      1019.22       630.58
 1747      1019.51       629.96
 1748       1019.8       629.42
 1749      1020.09       629.06
 1750      1020.38       628.56
 1751      1020.67        628.1
 1752      1020.96       628.16
 1753      1021.25       628.08
 1754      1021.54       627.82
 1755      1021.83       628.06
 1756      1022.12        628.3
 1757      1022.41       627.94
 1758       1022.7        627.5
 1759      1022.99          627
 1760      1023.28       626.48
 1761      1023.57        626.6
 1762      1023.86       627.38
 1763      1024.15          628
 1764      1024.44        628.4
 1765      1024.73       628.88
 1766      1025.02       629.72
 1767       1025.3       629.92
 1768      1025.59       629.54
 1769      1025.88       629.12
 1770      1026.17       628.74
 1771      1026.46        628.2
 1772      1026.74       627.84
 1773      1027.03       628.08
 1774      1027.32        628.6
 1775      1027.61       628.74
 1776      1027.89       628.16
 1777      1028.18       627.58
 1778      1028.47       626.94
 1779      1028.76       625.96
 1780      1029.04       625.08
 1781      1029.33       625.02
 1782      1029.62        625.5
 1783       1029.9       625.94
 1784      1030.19        626.5
 1785      1030.47       627.46
 1786      1030.76       627.96
 1787      1031.05       628.26
 1788      1031.33       628.88
 1789      1031.62        629.8
 1790       1031.9       630.16
 1791      1032.19       630.56
 1792      1032.47       630.94
 1793      1032.76        630.7
 1794      1033.04       630.18
 1795      1033.33       629.94
 1796      1033.61       629.56
 1797       1033.9       628.78
 1798      1034.18        628.4
 1799      1034.47       628.14
 1800      1034.75       627.92
 1801      1035.04       628.02
 1802      1035.32       628.12
 1803       1035.6       627.64
 1804      1035.89        627.4
 1805      1036.17       627.42
 1806      1036.45       627.06
 1807      1036.74       627.06
 1808      1037.02       627.46
 1809       1037.3        627.4
 1810      1037.59       627.14
 1811      1037.87        627.3
 1812      1038.15       626.92
 1813      1038.44       626.94
 1814      1038.72       627.08
 1815         1039       627.04
 1816      1039.28       627.26
 1817      1039.56       627.66
 1818      1039.85       627.82
 1819      1040.13       627.92
 1820      1040.41       627.52
 1821      1040.69       626.68
 1822      1040.97        626.2
 1823      1041.25       626.12
 1824      1041.54       626.62
 1825      1041.82       627.42
 1826       1042.1       628.16
 1827      1042.38       628.78
 1828      1042.66       628.62
 1829      1042.94       627.94
 1830      1043.22       627.84
 1831       1043.5        627.8
 1832      1043.78       627.32
 1833      1044.06        627.1
 1834      1044.34       626.96
 1835      1044.62       626.82
 1836       1044.9       626.88
 1837      1045.18       627.72
 1838      1045.46       628.64
 1839      1045.74       629.56
 1840      1046.02       630.06
 1841       1046.3       630.12
 1842      1046.58       629.88
 1843      1046.85       629.62
 1844      1047.13        629.2
 1845      1047.41       628.64
 1846      1047.69       628.34
 1847      1047.97       628.18
 1848      1048.25       628.16
 1849      1048.52       628.46
 1850       1048.8       628.84
 1851      1049.08       629.58
 1852      1049.36       630.08
 1853      1049.63       630.16
 1854      1049.91        629.8
 1855      1050.19       629.56
 1856      1050.47       628.96
 1857      1050.74       628.42
 1858      1051.02       628.08
 1859       1051.3       627.68
 1860      1051.57       627.14
 1861      1051.85       626.52
 1862      1052.13       626.44
 1863       1052.4       627.06
 1864      1052.68        627.8
 1865      1052.95       628.32
 1866      1053.23       628.96
 1867      1053.51       629.28
 1868      1053.78       628.96
 1869      1054.06       628.32
 1870      1054.33       627.84
 1871      1054.61       627.56
 1872      1054.88       627.22
 1873      1055.16       627.14
 1874      1055.43        627.7
 1875      1055.71        628.4
 1876      1055.98       629.04
 1877      1056.25       629.22
 1878      1056.53       629.12
 1879       1056.8       628.94
 1880      1057.08       628.34
 1881      1057.35       627.48
 1882      1057.62       627.26
 1883       1057.9       627.58
 1884      1058.17       628.08
 1885      1058.45        628.9
 1886      1058.72       629.62
 1887      1058.99       629.76
 1888      1059.26        629.2
 1889      1059.54       628.42
 1890      1059.81       628.22
 1891      1060.08       628.32
 1892      1060.35       628.42
 1893      1060.63       628.66
 1894       1060.9       628.74
 1895      1061.17       628.14
 1896      1061.44        627.6
 1897      1061.71       627.56
 1898      1061.99       628.16
 1899      1062.26       629.18
 1900      1062.53       630.32
 1901       1062.8       631.12
 1902      1063.07       631.46
 1903      1063.34       631.04
 1904      1063.61       630.18
 1905      1063.88       629.28
 1906      1064.15       628.76
 1907      1064.42       628.64
 1908       1064.7       628.92
 1909      1064.97       629.16
 1910      1065.24       629.38
 1911      1065.51          629
 1912      1065.78       628.18
 1913      1066.04       627.26
 1914      1066.31       626.98
 1915      1066.58       627.22
 1916      1066.85       627.92
 1917      1067.12       628.76
 1918      1067.39       629.18
 1919      1067.66       628.92
 1920      1067.93       628.38
 1921       1068.2       627.22
 1922      1068.47       625.92
 1923      1068.73       625.46
 1924         1069        625.3
 1925      1069.27       624.82
 1926      1069.54        624.8
 1927      1069.81       625.22
 1928      1070.07       625.58
 1929      1070.34          626
 1930      1070.61       626.78
 1931      1070.88       627.74
 1932      1071.14       628.26
 1933      1071.41       628.34
 1934      1071.68        628.2
 1935      1071.94       627.96
 1936      1072.21        627.9
 1937      1072.48       627.92
 1938      1072.74        628.3
 1939      1073.01       628.78
 1940      1073.28        628.8
 1941      1073.54        628.3
 1942      1073.81       627.82
 1943      1074.07       626.88
 1944      1074.34       626.02
 1945       1074.6       625.66
 1946      1074.87       625.82
 1947      1075.13       626.16
 1948       1075.4       626.72
 1949      1075.66        627.1
 1950      1075.93       627.24
 1951      1076.19       627.46
 1952      1076.46       627.66
 1953      1076.72        627.6
 1954      1076.99       627.48
 1955      1077.25        627.4
 1956      1077.52       627.12
 1957      1077.78       626.74
 1958      1078.04       626.94
 1959      1078.31       627.38
 1960      1078.57       627.58
 1961      1078.83       627.58
 1962       1079.1       627.64
 1963      1079.36       626.92
 1964      1079.62       626.24
 1965      1079.89       626.22
 1966      1080.15       626.36
 1967      1080.41       626.56
 1968      1080.67       627.16
 1969      1080.94       627.62
 1970       1081.2       627.88
 1971      1081.46       627.88
 1972      1081.72       627.56
 1973      1081.98       627.38
 1974      1082.24       627.06
 1975      1082.51       626.56
 1976      1082.77        626.4
 1977      1083.03       626.76
 1978      1083.29       627.18
 1979      1083.55       627.58
 1980      1083.81       628.02
 1981      1084.07       628.36
 1982      1084.33       628.48
 1983      1084.59       628.02
 1984      1084.85       627.88
 1985      1085.11       628.02
 1986      1085.37       627.94
 1987      1085.63       627.62
 1988      1085.89       627.68
 1989      1086.15        627.6
 1990      1086.41       627.22
 1991      1086.67       626.92
 1992      1086.93       626.74
 1993      1087.19       626.24
 1994      1087.45       626.04
 1995      1087.71       626.62
 1996      1087.97        627.1
 1997      1088.23       627.36
 1998      1088.48       627.86
 1999      1088.74       628.02
 2000         1089        627.2
 2001      1089.26       626.48
 2002      1089.52        626.4
 2003      1089.77       626.58
 2004      1090.03        626.3
 2005      1090.29       626.32
 2006      1090.55       626.66
 2007       1090.8       627.08
 2008      1091.06       627.52
 2009      1091.32       628.62
 2010      1091.57       629.98
 2011      1091.83       631.18
 2012      1092.09       631.58
 2013      1092.34       631.14
 2014       1092.6       630.22
 2015      1092.86       629.34
 2016      1093.11       627.86
 2017      1093.37       626.86
 2018      1093.62       627.04
 2019      1093.88       627.84
 2020      1094.13       628.12
 2021      1094.39        628.7
 2022      1094.65       628.94
 2023       1094.9       628.48
 2024      1095.16       627.66
 2025      1095.41       627.28
 2026      1095.66          627
 2027      1095.92       626.92
 2028      1096.17       627.22
 2029      1096.43       627.64
 2030      1096.68       627.48
 2031      1096.94        627.1
 2032      1097.19       626.86
 2033      1097.44       626.44
 2034       1097.7        626.1
 2035      1097.95       626.32
 2036       1098.2       627.24
 2037      1098.46       627.72
 2038      1098.71        627.9
 2039      1098.96       628.28
 2040      1099.22        628.6
 2041      1099.47       628.48
 2042      1099.72       628.44
 2043      1099.97        628.6
 2044      1100.23        628.6
 2045      1100.48       629.46
 2046      1100.73      629.525
 2047      1100.98      630.067
