scansci Spectrometer Data File
--- Measurement Setting ---
Type: Sample Spectrum
Date: Mon Oct 16 16:57:54 2023
User: (Reserved by scansci)
Serial: (Reserved by scansci)
Channel: No. 11
Integration Time: 1
Average: 10
Boxcar: 2
Electrical Dark: No-corrected
Time Normalize: (Reserved by scansci)
Dual-beam: (Reserved by scansci)
Reference Ch: (Reserved by scansci)
--- Measurement Data ---
Pixel   Wavelength   Intensity
    0        162.5      615.033
    1      162.985      615.075
    2      163.469       615.34
    3      163.954       615.82
    4      164.439        616.8
    5      164.923       617.58
    6      165.408       618.48
    7      165.892       619.04
    8      166.377        618.7
    9      166.861       617.68
   10      167.345       616.28
   11       167.83       614.78
   12      168.314       613.92
   13      168.798       613.72
   14      169.282       614.02
   15      169.766        615.4
   16       170.25          617
   17      170.734       617.76
   18      171.218       618.32
   19      171.702       618.68
   20      172.185       617.88
   21      172.669       617.02
   22      173.153       616.74
   23      173.636       616.84
   24       174.12       617.26
   25      174.603       618.32
   26      175.087       618.96
   27       175.57        618.9
   28      176.053       618.78
   29      176.537        618.2
   30       177.02       617.18
   31      177.503       616.56
   32      177.986       616.32
   33      178.469       616.02
   34      178.952        616.5
   35      179.435       617.42
   36      179.918       617.72
   37      180.401       617.88
   38      180.884       617.68
   39      181.366       616.62
   40      181.849       615.58
   41      182.332       615.26
   42      182.814       615.56
   43      183.297       616.28
   44      183.779       617.72
   45      184.262       618.96
   46      184.744       619.18
   47      185.226       618.72
   48      185.708       618.34
   49      186.191       617.88
   50      186.673       617.64
   51      187.155       618.02
   52      187.637       618.26
   53      188.119       617.94
   54        188.6       617.42
   55      189.082       616.44
   56      189.564        615.6
   57      190.046        615.5
   58      190.527        615.7
   59      191.009       615.68
   60      191.491       616.06
   61      191.972       617.08
   62      192.454       618.02
   63      192.935       618.58
   64      193.416       618.92
   65      193.897        618.8
   66      194.379       618.26
   67       194.86       617.92
   68      195.341       617.76
   69      195.822        617.7
   70      196.303          618
   71      196.784       618.14
   72      197.265       617.78
   73      197.746        617.3
   74      198.226       616.88
   75      198.707       616.78
   76      199.188       616.68
   77      199.668        616.4
   78      200.149       616.52
   79      200.629       616.94
   80       201.11       616.96
   81       201.59       617.28
   82       202.07       617.86
   83       202.55       618.16
   84      203.031       618.38
   85      203.511       618.64
   86      203.991       618.62
   87      204.471        618.3
   88      204.951       618.12
   89      205.431          618
   90       205.91        617.7
   91       206.39       617.44
   92       206.87       617.52
   93      207.349       617.58
   94      207.829       617.46
   95      208.309        617.7
   96      208.788       617.72
   97      209.267       617.06
   98      209.747       616.64
   99      210.226        616.7
  100      210.705       616.24
  101      211.185       615.78
  102      211.664       616.32
  103      212.143       616.78
  104      212.622       616.34
  105      213.101       615.72
  106      213.579       615.28
  107      214.058       614.46
  108      214.537          614
  109      215.016        614.7
  110      215.494       615.88
  111      215.973       616.66
  112      216.452       617.26
  113       216.93        617.4
  114      217.408       616.72
  115      217.887       616.38
  116      218.365       616.32
  117      218.843        616.3
  118      219.321       616.52
  119      219.799       616.96
  120      220.278       616.98
  121      220.755       617.08
  122      221.233       617.12
  123      221.711       616.64
  124      222.189        615.8
  125      222.667       614.92
  126      223.144       613.86
  127      223.622       613.26
  128        224.1       613.34
  129      224.577       614.14
  130      225.055       615.22
  131      225.532       616.76
  132      226.009       618.18
  133      226.486       619.12
  134      226.964       619.72
  135      227.441        620.1
  136      227.918        619.8
  137      228.395       619.32
  138      228.872       619.08
  139      229.349       618.62
  140      229.826       618.04
  141      230.302       617.74
  142      230.779       617.58
  143      231.256       617.28
  144      231.732        616.9
  145      232.209       616.88
  146      232.685       617.38
  147      233.162       617.78
  148      233.638       617.92
  149      234.114       618.24
  150       234.59       618.16
  151      235.066       617.44
  152      235.543       616.76
  153      236.019       616.26
  154      236.495       615.92
  155       236.97       615.78
  156      237.446       615.68
  157      237.922       615.96
  158      238.398        616.2
  159      238.873        615.9
  160      239.349       615.84
  161      239.824       615.68
  162        240.3       614.74
  163      240.775       613.52
  164      241.251        612.6
  165      241.726       611.78
  166      242.201        611.5
  167      242.676       611.94
  168      243.151       613.04
  169      243.626       613.92
  170      244.101       614.12
  171      244.576       614.26
  172      245.051       614.28
  173      245.526       614.54
  174          246        615.8
  175      246.475       617.58
  176       246.95       619.06
  177      247.424       620.06
  178      247.899        620.1
  179      248.373       619.26
  180      248.847       617.74
  181      249.321        616.5
  182      249.796       615.46
  183       250.27       614.72
  184      250.744       614.34
  185      251.218       614.76
  186      251.692       615.06
  187      252.166       615.38
  188      252.639       615.98
  189      253.113       616.42
  190      253.587       616.58
  191       254.06        616.7
  192      254.534       616.94
  193      255.007       616.52
  194      255.481       616.22
  195      255.954       616.06
  196      256.427       615.92
  197      256.901       615.46
  198      257.374        615.4
  199      257.847        615.2
  200       258.32       615.24
  201      258.793       615.46
  202      259.266       615.74
  203      259.739       615.94
  204      260.211       616.26
  205      260.684       616.26
  206      261.157       616.14
  207      261.629       616.44
  208      262.102       617.14
  209      262.574       617.96
  210      263.046       618.66
  211      263.519        618.8
  212      263.991       618.46
  213      264.463       618.34
  214      264.935       618.24
  215      265.407       618.26
  216      265.879       618.78
  217      266.351       619.34
  218      266.823       619.02
  219      267.295       617.96
  220      267.766       616.82
  221      268.238       616.04
  222       268.71        615.2
  223      269.181       614.58
  224      269.653       614.64
  225      270.124       615.06
  226      270.595       615.14
  227      271.066       615.36
  228      271.538       616.04
  229      272.009       616.46
  230       272.48        616.7
  231      272.951       616.76
  232      273.422       616.74
  233      273.892       616.08
  234      274.363       615.68
  235      274.834       615.52
  236      275.305       615.34
  237      275.775       615.36
  238      276.246       615.98
  239      276.716        616.3
  240      277.186       615.84
  241      277.657       615.56
  242      278.127       615.06
  243      278.597        614.2
  244      279.067       613.92
  245      279.537       614.16
  246      280.007       614.04
  247      280.477       614.34
  248      280.947       615.42
  249      281.417       616.36
  250      281.886       616.88
  251      282.356       617.56
  252      282.825       617.86
  253      283.295       617.54
  254      283.764       617.16
  255      284.234       617.44
  256      284.703       617.64
  257      285.172       617.56
  258      285.641       617.52
  259       286.11        617.4
  260      286.579       616.62
  261      287.048       615.86
  262      287.517       615.74
  263      287.986       615.22
  264      288.454       614.78
  265      288.923       615.26
  266      289.392        616.1
  267       289.86       616.58
  268      290.329       616.98
  269      290.797       617.38
  270      291.265       617.52
  271      291.734       617.24
  272      292.202       617.26
  273       292.67          618
  274      293.138       618.56
  275      293.606       618.68
  276      294.074       619.36
  277      294.541       619.82
  278      295.009       620.12
  279      295.477        620.3
  280      295.944       619.82
  281      296.412       619.08
  282      296.879       618.18
  283      297.347       616.98
  284      297.814       616.12
  285      298.281       617.12
  286      298.749       618.52
  287      299.216       619.86
  288      299.683       621.18
  289       300.15       621.98
  290      300.616        621.1
  291      301.083        619.6
  292       301.55       618.22
  293      302.017        616.9
  294      302.483       616.14
  295       302.95       616.12
  296      303.416       616.38
  297      303.883       616.64
  298      304.349        616.9
  299      304.815       616.98
  300      305.281       616.78
  301      305.748       616.68
  302      306.214       617.24
  303       306.68       617.76
  304      307.146       617.62
  305      307.611       616.92
  306      308.077       616.16
  307      308.543       615.38
  308      309.008       615.18
  309      309.474       615.72
  310      309.939       616.14
  311      310.405        615.9
  312       310.87       615.36
  313      311.335        614.6
  314        311.8       613.94
  315      312.266        614.2
  316      312.731       615.26
  317      313.196       616.08
  318       313.66       616.64
  319      314.125       616.96
  320       314.59       616.94
  321      315.055       616.84
  322      315.519        617.2
  323      315.984        617.4
  324      316.448       617.26
  325      316.913       617.42
  326      317.377       617.04
  327      317.841       616.12
  328      318.305       615.52
  329      318.769       615.66
  330      319.233       615.64
  331      319.697       615.72
  332      320.161       616.24
  333      320.625       616.74
  334      321.089       616.48
  335      321.552        616.3
  336      322.016       616.74
  337      322.479       616.42
  338      322.943       615.76
  339      323.406       615.84
  340      323.869       616.14
  341      324.333       616.22
  342      324.796       616.84
  343      325.259       617.52
  344      325.722       617.52
  345      326.185       617.58
  346      326.647       617.98
  347       327.11       618.62
  348      327.573       618.74
  349      328.035       618.22
  350      328.498        617.3
  351       328.96       616.48
  352      329.423       615.84
  353      329.885       616.06
  354      330.347       617.32
  355       330.81       618.68
  356      331.272        619.6
  357      331.734       620.02
  358      332.196       620.12
  359      332.657        620.1
  360      333.119       619.54
  361      333.581       618.24
  362      334.043       616.96
  363      334.504       616.16
  364      334.966       615.54
  365      335.427       615.68
  366      335.888       616.32
  367       336.35       617.02
  368      336.811       617.38
  369      337.272       617.96
  370      337.733       618.42
  371      338.194       618.42
  372      338.655        618.5
  373      339.115        618.9
  374      339.576       618.62
  375      340.037       617.76
  376      340.497       617.16
  377      340.958        616.9
  378      341.418       617.04
  379      341.879       617.52
  380      342.339       618.46
  381      342.799       619.26
  382      343.259       619.08
  383      343.719       618.24
  384      344.179       617.52
  385      344.639       617.28
  386      345.099       617.44
  387      345.559       617.96
  388      346.018       618.78
  389      346.478       619.42
  390      346.937       619.12
  391      347.397       618.92
  392      347.856       618.62
  393      348.315       617.68
  394      348.774       617.06
  395      349.234       617.26
  396      349.693       617.26
  397      350.152       617.54
  398       350.61       618.28
  399      351.069       618.82
  400      351.528        618.8
  401      351.987       618.42
  402      352.445       617.58
  403      352.904       616.98
  404      353.362       616.42
  405       353.82       616.62
  406      354.279       617.36
  407      354.737       618.28
  408      355.195        618.8
  409      355.653       619.14
  410      356.111       619.06
  411      356.569       618.64
  412      357.027       618.18
  413      357.484        617.8
  414      357.942       616.98
  415      358.399       616.08
  416      358.857       615.58
  417      359.314       615.32
  418      359.772        614.9
  419      360.229       614.96
  420      360.686       615.42
  421      361.143       615.94
  422        361.6        616.6
  423      362.057        617.1
  424      362.514       617.66
  425      362.971       618.44
  426      363.427       619.08
  427      363.884       619.12
  428       364.34       619.28
  429      364.797        619.3
  430      365.253        618.8
  431      365.709       618.38
  432      366.166       618.42
  433      366.622        618.7
  434      367.078       619.54
  435      367.534       620.84
  436       367.99       621.86
  437      368.445       622.82
  438      368.901        623.7
  439      369.357       624.08
  440      369.812        623.6
  441      370.268       622.78
  442      370.723       621.76
  443      371.179       620.24
  444      371.634       618.46
  445      372.089        617.1
  446      372.544       616.36
  447      372.999       615.76
  448      373.454       615.56
  449      373.909       615.46
  450      374.364       615.72
  451      374.818       616.08
  452      375.273       616.64
  453      375.727        617.4
  454      376.182       617.92
  455      376.636       617.86
  456       377.09       617.56
  457      377.545       617.44
  458      377.999        617.2
  459      378.453       617.36
  460      378.907       617.42
  461      379.361       617.52
  462      379.814       617.22
  463      380.268       616.88
  464      380.722       616.48
  465      381.175       616.26
  466      381.629          616
  467      382.082        615.8
  468      382.535       615.82
  469      382.989       616.24
  470      383.442       616.74
  471      383.895       617.42
  472      384.348       618.34
  473      384.801       619.18
  474      385.253       619.22
  475      385.706       619.06
  476      386.159       618.48
  477      386.611       617.56
  478      387.064       616.62
  479      387.516       616.46
  480      387.968       616.34
  481      388.421       616.32
  482      388.873       616.96
  483      389.325        618.2
  484      389.777          619
  485      390.229       619.42
  486      390.681          620
  487      391.132       620.06
  488      391.584       619.04
  489      392.035       617.82
  490      392.487        616.9
  491      392.938       616.14
  492       393.39       615.48
  493      393.841       615.28
  494      394.292        615.2
  495      394.743        615.4
  496      395.194        616.4
  497      395.645       618.08
  498      396.096       619.02
  499      396.546       619.48
  500      396.997       619.58
  501      397.448       618.72
  502      397.898       617.78
  503      398.349       618.08
  504      398.799       618.94
  505      399.249       620.06
  506      399.699        621.2
  507      400.149       621.88
  508      400.599       621.98
  509      401.049       622.04
  510      401.499       622.04
  511      401.949       621.92
  512      402.398        621.8
  513      402.848       621.58
  514      403.297        621.3
  515      403.747       621.06
  516      404.196          621
  517      404.645       620.66
  518      405.094       620.74
  519      405.543       621.52
  520      405.992       622.32
  521      406.441       622.34
  522       406.89       622.52
  523      407.339       623.08
  524      407.787       622.94
  525      408.236       622.74
  526      408.684        623.4
  527      409.132       623.94
  528      409.581       624.02
  529      410.029       624.74
  530      410.477       625.22
  531      410.925       625.36
  532      411.373       625.94
  533      411.821       627.18
  534      412.269       628.38
  535      412.716       630.28
  536      413.164       632.58
  537      413.611       634.46
  538      414.059        635.9
  539      414.506       637.68
  540      414.953       639.54
  541        415.4       641.36
  542      415.847       643.42
  543      416.294       645.18
  544      416.741       646.32
  545      417.188       647.44
  546      417.635       649.46
  547      418.081        651.8
  548      418.528       654.56
  549      418.974       657.46
  550      419.421       660.16
  551      419.867       662.52
  552      420.313       665.06
  553      420.759        667.8
  554      421.205       670.68
  555      421.651       673.78
  556      422.097       676.92
  557      422.543       680.56
  558      422.989       684.94
  559      423.434       689.28
  560       423.88        693.2
  561      424.325       697.34
  562       424.77       701.78
  563      425.216       705.68
  564      425.661       710.22
  565      426.106       715.88
  566      426.551       721.98
  567      426.996       728.62
  568       427.44       735.96
  569      427.885       743.86
  570       428.33       751.82
  571      428.774       760.16
  572      429.219       768.02
  573      429.663       775.18
  574      430.107       782.74
  575      430.551       791.66
  576      430.996       801.38
  577       431.44        811.5
  578      431.883       822.34
  579      432.327       832.94
  580      432.771       842.58
  581      433.215       851.66
  582      433.658       861.22
  583      434.102       871.56
  584      434.545        882.2
  585      434.988       892.98
  586      435.431       903.82
  587      435.875       915.28
  588      436.318       928.76
  589      436.761       944.26
  590      437.203       961.02
  591      437.646       978.54
  592      438.089       996.04
  593      438.531      1012.24
  594      438.974      1028.12
  595      439.416      1044.74
  596      439.859      1062.78
  597      440.301      1081.88
  598      440.743      1102.06
  599      441.185       1123.8
  600      441.627       1147.4
  601      442.069      1171.28
  602       442.51      1194.44
  603      442.952      1215.24
  604      443.394      1233.36
  605      443.835      1249.82
  606      444.277      1266.08
  607      444.718      1283.08
  608      445.159      1304.08
  609        445.6      1330.68
  610      446.041      1359.96
  611      446.482       1392.1
  612      446.923      1429.36
  613      447.364      1468.28
  614      447.804      1504.96
  615      448.245      1543.48
  616      448.685      1582.48
  617      449.126      1617.88
  618      449.566      1652.42
  619      450.006      1687.08
  620      450.447       1719.5
  621      450.887       1750.9
  622      451.326      1781.92
  623      451.766      1812.18
  624      452.206      1842.66
  625      452.646      1873.54
  626      453.085      1904.36
  627      453.525      1936.96
  628      453.964      1970.28
  629      454.403      2001.48
  630      454.843      2029.86
  631      455.282      2055.38
  632      455.721      2077.98
  633       456.16       2097.1
  634      456.599       2112.9
  635      457.037       2125.9
  636      457.476      2137.64
  637      457.915      2145.42
  638      458.353       2147.3
  639      458.791       2147.4
  640       459.23       2145.3
  641      459.668      2138.82
  642      460.106      2130.02
  643      460.544       2121.7
  644      460.982      2112.56
  645       461.42       2101.5
  646      461.857       2086.4
  647      462.295      2069.14
  648      462.733      2050.52
  649       463.17      2027.38
  650      463.607      2001.32
  651      464.045      1977.78
  652      464.482      1956.68
  653      464.919      1935.18
  654      465.356      1914.36
  655      465.793      1895.82
  656       466.23       1878.8
  657      466.666       1860.7
  658      467.103      1844.14
  659      467.539      1830.38
  660      467.976      1816.54
  661      468.412      1800.38
  662      468.848      1783.56
  663      469.284      1766.74
  664       469.72      1750.84
  665      470.156       1736.1
  666      470.592      1722.72
  667      471.028      1711.12
  668      471.464      1699.36
  669      471.899      1687.22
  670      472.335      1675.48
  671       472.77      1663.86
  672      473.205       1652.1
  673      473.641      1641.26
  674      474.076      1629.96
  675      474.511      1617.94
  676      474.946      1606.44
  677       475.38      1594.26
  678      475.815      1581.08
  679       476.25      1569.14
  680      476.684      1558.36
  681      477.119       1547.8
  682      477.553      1539.44
  683      477.987      1532.82
  684      478.421      1526.62
  685      478.856       1520.6
  686      479.289       1514.1
  687      479.723       1506.3
  688      480.157      1498.46
  689      480.591       1490.9
  690      481.024      1484.06
  691      481.458       1478.6
  692      481.891      1475.48
  693      482.324      1473.24
  694      482.758      1471.04
  695      483.191      1468.94
  696      483.624      1467.48
  697      484.057      1465.68
  698      484.489       1464.7
  699      484.922      1465.04
  700      485.355      1466.74
  701      485.787      1470.72
  702       486.22      1476.52
  703      486.652       1482.1
  704      487.084      1486.86
  705      487.516      1491.88
  706      487.948      1496.58
  707       488.38      1501.32
  708      488.812      1506.06
  709      489.244      1511.86
  710      489.676      1519.22
  711      490.107      1527.78
  712      490.539      1536.24
  713       490.97      1545.22
  714      491.401      1554.16
  715      491.832       1561.9
  716      492.263       1569.7
  717      492.694      1577.54
  718      493.125      1585.48
  719      493.556      1593.44
  720      493.987       1600.9
  721      494.417      1607.94
  722      494.848      1615.86
  723      495.278      1624.24
  724      495.708      1633.12
  725      496.139       1642.9
  726      496.569      1651.98
  727      496.999      1659.74
  728      497.429      1668.18
  729      497.858      1676.38
  730      498.288         1683
  731      498.718      1689.16
  732      499.147      1693.52
  733      499.577      1696.46
  734      500.006      1699.06
  735      500.435      1699.46
  736      500.864      1696.52
  737      501.293      1692.98
  738      501.722       1688.4
  739      502.151      1682.42
  740       502.58      1677.28
  741      503.008       1671.7
  742      503.437      1663.38
  743      503.865      1651.64
  744      504.293      1637.38
  745      504.722      1620.64
  746       505.15      1602.44
  747      505.578      1583.26
  748      506.006       1562.1
  749      506.434       1539.3
  750      506.861      1514.64
  751      507.289      1487.38
  752      507.716       1457.3
  753      508.144      1426.24
  754      508.571       1392.3
  755      508.998      1355.24
  756      509.425      1316.92
  757      509.852      1278.92
  758      510.279      1239.86
  759      510.706      1200.26
  760      511.133      1161.42
  761       511.56      1123.02
  762      511.986      1085.24
  763      512.412      1048.84
  764      512.839      1014.78
  765      513.265       982.64
  766      513.691       952.24
  767      514.117       923.24
  768      514.543       896.24
  769      514.969        871.8
  770      515.395       849.84
  771       515.82       830.22
  772      516.246       812.88
  773      516.671       798.18
  774      517.096       785.96
  775      517.522       776.34
  776      517.947       768.98
  777      518.372          764
  778      518.797       760.88
  779      519.222       759.02
  780      519.646       758.54
  781      520.071       759.84
  782      520.495        762.3
  783       520.92       764.94
  784      521.344       767.76
  785      521.768       770.96
  786      522.192       774.56
  787      522.616       778.36
  788       523.04       782.54
  789      523.464       786.56
  790      523.888       790.12
  791      524.311       792.96
  792      524.735       795.22
  793      525.158        797.2
  794      525.581       799.04
  795      526.005          801
  796      526.428       802.96
  797      526.851        804.5
  798      527.274       805.56
  799      527.696        806.7
  800      528.119       807.52
  801      528.542       807.94
  802      528.964        807.8
  803      529.386       807.08
  804      529.809       805.72
  805      530.231       803.64
  806      530.653        801.2
  807      531.075          799
  808      531.497       797.24
  809      531.918       795.68
  810       532.34       793.96
  811      532.761       791.76
  812      533.183       789.02
  813      533.604        785.8
  814      534.025       782.62
  815      534.447       780.28
  816      534.868       778.38
  817      535.289        776.7
  818      535.709        774.6
  819       536.13       772.22
  820      536.551        769.9
  821      536.971       767.92
  822      537.392        766.4
  823      537.812       765.62
  824      538.232       765.36
  825      538.652       765.04
  826      539.072        764.8
  827      539.492        764.5
  828      539.912       764.24
  829      540.331       763.74
  830      540.751       763.42
  831       541.17        763.7
  832       541.59          764
  833      542.009       764.78
  834      542.428       766.46
  835      542.847       768.48
  836      543.266       769.92
  837      543.685       771.58
  838      544.104       773.24
  839      544.522        774.4
  840      544.941       775.44
  841      545.359       776.74
  842      545.778       777.98
  843      546.196       779.88
  844      546.614       782.62
  845      547.032       785.22
  846       547.45       787.48
  847      547.867       789.92
  848      548.285       791.48
  849      548.703        792.8
  850       549.12       794.28
  851      549.538       795.62
  852      549.955       797.42
  853      550.372        799.5
  854      550.789       800.88
  855      551.206       802.52
  856      551.623       804.98
  857      552.039       807.16
  858      552.456       809.78
  859      552.873       812.44
  860      553.289       815.32
  861      553.705          818
  862      554.121       820.28
  863      554.537       821.74
  864      554.953       823.04
  865      555.369       824.32
  866      555.785       825.84
  867      556.201       827.86
  868      556.616       830.34
  869      557.032          833
  870      557.447       835.18
  871      557.862       837.24
  872      558.277       839.36
  873      558.692       841.12
  874      559.107       842.88
  875      559.522       844.46
  876      559.937        845.1
  877      560.351       845.16
  878      560.766       845.42
  879       561.18       844.84
  880      561.595        843.2
  881      562.009       842.12
  882      562.423       841.06
  883      562.837       839.74
  884       563.25       839.06
  885      563.664        839.4
  886      564.078       839.36
  887      564.491       837.98
  888      564.905       835.64
  889      565.318       832.92
  890      565.731       829.48
  891      566.144       826.52
  892      566.557       825.54
  893       566.97       825.38
  894      567.383       824.86
  895      567.795       824.14
  896      568.208       822.44
  897       568.62       820.12
  898      569.033       817.98
  899      569.445       815.48
  900      569.857       813.04
  901      570.269       811.44
  902      570.681        810.4
  903      571.093       809.74
  904      571.504        810.1
  905      571.916        811.1
  906      572.327       812.26
  907      572.739       812.84
  908       573.15       812.44
  909      573.561       811.48
  910      573.972       810.64
  911      574.383        810.5
  912      574.794       810.84
  913      575.204        811.5
  914      575.615       812.58
  915      576.025        813.8
  916      576.436       814.42
  917      576.846        814.4
  918      577.256       813.86
  919      577.666        813.2
  920      578.076       812.76
  921      578.486       812.22
  922      578.896       811.92
  923      579.305       812.64
  924      579.715       813.36
  925      580.124       813.64
  926      580.533       814.02
  927      580.942       814.98
  928      581.351       815.84
  929       581.76       816.68
  930      582.169       817.42
  931      582.578       817.92
  932      582.986       817.64
  933      583.395       816.42
  934      583.803        815.4
  935      584.212        815.4
  936       584.62       815.92
  937      585.028       816.88
  938      585.436       819.08
  939      585.843       821.62
  940      586.251       823.32
  941      586.659       824.12
  942      587.066        824.9
  943      587.474       825.12
  944      587.881       824.92
  945      588.288       824.98
  946      588.695       824.78
  947      589.102       824.44
  948      589.509       824.56
  949      589.915        825.1
  950      590.322       825.62
  951      590.728       827.12
  952      591.135       828.88
  953      591.541       830.68
  954      591.947       832.08
  955      592.353       833.36
  956      592.759        834.9
  957      593.165       836.04
  958      593.571        836.2
  959      593.976       836.32
  960      594.382        836.3
  961      594.787        835.4
  962      595.192       834.52
  963      595.597       834.48
  964      596.002        834.8
  965      596.407        835.2
  966      596.812        835.6
  967      597.217       835.62
  968      597.621       835.48
  969      598.026        834.6
  970       598.43       833.48
  971      598.834        832.6
  972      599.238       831.42
  973      599.642        829.7
  974      600.046        828.4
  975       600.45       826.72
  976      600.854        824.7
  977      601.257       823.96
  978      601.661        823.4
  979      602.064       821.82
  980      602.467        820.5
  981       602.87        819.5
  982      603.273       818.16
  983      603.676        817.1
  984      604.079       816.78
  985      604.481          816
  986      604.884        814.5
  987      605.286       812.68
  988      605.689       810.56
  989      606.091       808.28
  990      606.493        806.6
  991      606.895       805.12
  992      607.297       802.94
  993      607.698       800.62
  994        608.1       798.58
  995      608.501       796.82
  996      608.903       795.46
  997      609.304        794.5
  998      609.705       793.54
  999      610.106       792.52
 1000      610.507        790.6
 1001      610.908       788.26
 1002      611.308       786.32
 1003      611.709       784.76
 1004      612.109       782.46
 1005       612.51          780
 1006       612.91       777.62
 1007       613.31       775.26
 1008       613.71       773.38
 1009       614.11       772.14
 1010       614.51       771.46
 1011      614.909       771.56
 1012      615.309          771
 1013      615.708        768.6
 1014      616.108       765.78
 1015      616.507       763.12
 1016      616.906       759.38
 1017      617.305       755.58
 1018      617.704       752.72
 1019      618.102       750.28
 1020      618.501       748.18
 1021      618.899       746.68
 1022      619.298       745.46
 1023      619.696       744.26
 1024      620.094       743.08
 1025      620.492        741.3
 1026       620.89       738.94
 1027      621.288       736.34
 1028      621.686       734.34
 1029      622.083       733.08
 1030       622.48       731.86
 1031      622.878       730.94
 1032      623.275       730.18
 1033      623.672       729.06
 1034      624.069       727.72
 1035      624.466       726.52
 1036      624.863       725.18
 1037      625.259        724.3
 1038      625.656       723.86
 1039      626.052       722.72
 1040      626.448       720.72
 1041      626.844       718.62
 1042      627.241        716.3
 1043      627.636          714
 1044      628.032       712.54
 1045      628.428       712.04
 1046      628.823       712.28
 1047      629.219       712.34
 1048      629.614       712.14
 1049      630.009       711.62
 1050      630.404        710.5
 1051      630.799       708.62
 1052      631.194       706.44
 1053      631.589       704.06
 1054      631.984       702.04
 1055      632.378       701.16
 1056      632.772       700.76
 1057      633.167       700.36
 1058      633.561       699.98
 1059      633.955       699.48
 1060      634.349       698.12
 1061      634.743       696.64
 1062      635.136       695.48
 1063       635.53       694.22
 1064      635.923       692.44
 1065      636.316       691.28
 1066       636.71       690.62
 1067      637.103       690.38
 1068      637.496       690.46
 1069      637.888       690.62
 1070      638.281       690.48
 1071      638.674       690.06
 1072      639.066          689
 1073      639.459       688.14
 1074      639.851       687.72
 1075      640.243       687.24
 1076      640.635       686.24
 1077      641.027       685.88
 1078      641.419        685.7
 1079       641.81        685.6
 1080      642.202       685.62
 1081      642.593       685.82
 1082      642.984       685.26
 1083      643.375       683.74
 1084      643.766        681.6
 1085      644.157       679.36
 1086      644.548       677.52
 1087      644.939       676.84
 1088      645.329       676.96
 1089       645.72       677.24
 1090       646.11        677.4
 1091        646.5       677.34
 1092       646.89       676.28
 1093       647.28       674.86
 1094       647.67        673.9
 1095       648.06       673.08
 1096      648.449       672.84
 1097      648.839       673.28
 1098      649.228        673.8
 1099      649.617       673.48
 1100      650.007       673.02
 1101      650.396       671.98
 1102      650.784       670.86
 1103      651.173       669.58
 1104      651.562       668.66
 1105       651.95       668.22
 1106      652.339       667.92
 1107      652.727       667.48
 1108      653.115       667.48
 1109      653.503        667.8
 1110      653.891       667.56
 1111      654.279       667.02
 1112      654.666       666.76
 1113      655.054       666.46
 1114      655.441       665.98
 1115      655.828       666.22
 1116      656.216       667.56
 1117      656.603       668.44
 1118      656.989       668.64
 1119      657.376       668.82
 1120      657.763        668.4
 1121      658.149       666.88
 1122      658.536       665.68
 1123      658.922       665.32
 1124      659.308       664.74
 1125      659.694       664.28
 1126       660.08       663.92
 1127      660.466       663.52
 1128      660.852        663.2
 1129      661.237       663.16
 1130      661.623        662.6
 1131      662.008       662.32
 1132      662.393       662.08
 1133      662.778       661.66
 1134      663.163       661.36
 1135      663.548       661.42
 1136      663.933       661.22
 1137      664.317       660.82
 1138      664.702       659.74
 1139      665.086       658.42
 1140       665.47        657.2
 1141      665.854       655.72
 1142      666.238       653.88
 1143      666.622       652.44
 1144      667.006        651.1
 1145      667.389       649.94
 1146      667.773       649.48
 1147      668.156       649.56
 1148      668.539       649.52
 1149      668.923       649.46
 1150      669.305       649.02
 1151      669.688       648.42
 1152      670.071       648.38
 1153      670.454       648.34
 1154      670.836       647.86
 1155      671.218       647.58
 1156      671.601       647.26
 1157      671.983       646.46
 1158      672.365       645.48
 1159      672.747       644.82
 1160      673.128       644.52
 1161       673.51       644.32
 1162      673.891       643.96
 1163      674.273       643.52
 1164      674.654       643.78
 1165      675.035       643.62
 1166      675.416        642.7
 1167      675.797       641.58
 1168      676.177        641.1
 1169      676.558       640.12
 1170      676.938       639.34
 1171      677.319       639.06
 1172      677.699       639.32
 1173      678.079       640.14
 1174      678.459        640.9
 1175      678.839       641.26
 1176      679.219       641.34
 1177      679.598       641.02
 1178      679.978       639.48
 1179      680.357       637.48
 1180      680.736       635.98
 1181      681.115       635.18
 1182      681.494       634.46
 1183      681.873       634.24
 1184      682.252       635.04
 1185       682.63       636.46
 1186      683.009       637.34
 1187      683.387       637.36
 1188      683.765       637.16
 1189      684.143       636.36
 1190      684.521       634.26
 1191      684.899       632.06
 1192      685.277       630.84
 1193      685.654        629.9
 1194      686.032        629.5
 1195      686.409        629.7
 1196      686.786       630.42
 1197      687.163       630.86
 1198       687.54        630.8
 1199      687.917       630.84
 1200      688.294        630.9
 1201       688.67       630.22
 1202      689.046       629.46
 1203      689.423        629.3
 1204      689.799        628.4
 1205      690.175       627.32
 1206      690.551       627.58
 1207      690.927       628.76
 1208      691.302       629.64
 1209      691.678        630.5
 1210      692.053       631.28
 1211      692.428       631.14
 1212      692.804       630.32
 1213      693.179        629.5
 1214      693.553       628.52
 1215      693.928       627.64
 1216      694.303       627.34
 1217      694.677       627.26
 1218      695.052       627.34
 1219      695.426       627.54
 1220        695.8       627.18
 1221      696.174        626.4
 1222      696.548       625.78
 1223      696.921       625.32
 1224      697.295       624.96
 1225      697.669       624.48
 1226      698.042       624.18
 1227      698.415       624.32
 1228      698.788        624.1
 1229      699.161       623.46
 1230      699.534        623.8
 1231      699.907        624.1
 1232      700.279       623.42
 1233      700.652        623.2
 1234      701.024       623.58
 1235      701.396       623.54
 1236      701.768       622.94
 1237       702.14       622.36
 1238      702.512       621.62
 1239      702.883       620.84
 1240      703.255        620.3
 1241      703.626       620.44
 1242      703.998       620.76
 1243      704.369       620.88
 1244       704.74       621.16
 1245      705.111       621.56
 1246      705.481       621.78
 1247      705.852       621.68
 1248      706.222       621.72
 1249      706.593       621.76
 1250      706.963       621.68
 1251      707.333       621.78
 1252      707.703       622.44
 1253      708.073       623.34
 1254      708.442       624.04
 1255      708.812       624.32
 1256      709.181        624.1
 1257      709.551       623.46
 1258       709.92       622.56
 1259      710.289       621.78
 1260      710.658       620.94
 1261      711.027       620.54
 1262      711.395       620.42
 1263      711.764          620
 1264      712.132       619.76
 1265        712.5       620.02
 1266      712.869          620
 1267      713.236       620.18
 1268      713.604       620.14
 1269      713.972       619.14
 1270       714.34       618.22
 1271      714.707       617.38
 1272      715.074       616.36
 1273      715.442       616.12
 1274      715.809       616.64
 1275      716.176        616.6
 1276      716.542       616.42
 1277      716.909       616.44
 1278      717.276       616.36
 1279      717.642       616.82
 1280      718.008       617.66
 1281      718.374        618.8
 1282       718.74       619.86
 1283      719.106       620.72
 1284      719.472       620.82
 1285      719.838       620.38
 1286      720.203       619.68
 1287      720.568       618.62
 1288      720.934       617.66
 1289      721.299       617.34
 1290      721.664        617.6
 1291      722.029        617.8
 1292      722.393       617.96
 1293      722.758        617.9
 1294      723.122       617.64
 1295      723.486       617.62
 1296      723.851       617.88
 1297      724.215       617.96
 1298      724.578       617.78
 1299      724.942       617.04
 1300      725.306       616.42
 1301      725.669       616.04
 1302      726.033       616.38
 1303      726.396       617.42
 1304      726.759       618.36
 1305      727.122       618.62
 1306      727.485       618.48
 1307      727.847       617.96
 1308       728.21       617.14
 1309      728.572       616.46
 1310      728.935       616.28
 1311      729.297       616.48
 1312      729.659        616.8
 1313      730.021       617.54
 1314      730.382       618.26
 1315      730.744       618.36
 1316      731.105       617.94
 1317      731.467        616.9
 1318      731.828       615.68
 1319      732.189       615.56
 1320       732.55       615.74
 1321      732.911        615.7
 1322      733.271        616.2
 1323      733.632       616.58
 1324      733.992       616.36
 1325      734.352        616.1
 1326      734.713       616.34
 1327      735.072       616.68
 1328      735.432       616.58
 1329      735.792       616.26
 1330      736.152       616.06
 1331      736.511       616.06
 1332       736.87        616.2
 1333      737.229       616.38
 1334      737.589       615.98
 1335      737.947       615.56
 1336      738.306       615.52
 1337      738.665       615.54
 1338      739.023       616.06
 1339      739.382        617.2
 1340       739.74       618.02
 1341      740.098       618.08
 1342      740.456        617.9
 1343      740.814       617.68
 1344      741.171       617.18
 1345      741.529       616.84
 1346      741.886        616.6
 1347      742.244       616.16
 1348      742.601       615.62
 1349      742.958       615.98
 1350      743.314       617.04
 1351      743.671        618.3
 1352      744.028       619.18
 1353      744.384        619.8
 1354       744.74       619.54
 1355      745.097        618.4
 1356      745.453       617.18
 1357      745.809        616.3
 1358      746.164       614.86
 1359       746.52       613.66
 1360      746.875       613.34
 1361      747.231       612.78
 1362      747.586       612.62
 1363      747.941       613.38
 1364      748.296       614.06
 1365      748.651       614.46
 1366      749.005       615.16
 1367       749.36        615.8
 1368      749.714       615.76
 1369      750.069       615.12
 1370      750.423       614.34
 1371      750.777       613.84
 1372       751.13       613.38
 1373      751.484       613.34
 1374      751.838       614.16
 1375      752.191       615.04
 1376      752.544       615.56
 1377      752.897       615.98
 1378       753.25       615.92
 1379      753.603       614.98
 1380      753.956       613.94
 1381      754.309       613.06
 1382      754.661       612.16
 1383      755.013        612.2
 1384      755.365       612.86
 1385      755.717       613.14
 1386      756.069       613.74
 1387      756.421        614.9
 1388      756.773       615.46
 1389      757.124        615.7
 1390      757.476       616.32
 1391      757.827       616.66
 1392      758.178       616.16
 1393      758.529        615.5
 1394      758.879       615.54
 1395       759.23       616.04
 1396      759.581       616.68
 1397      759.931       617.78
 1398      760.281        619.4
 1399      760.631       620.18
 1400      760.981       619.86
 1401      761.331       618.82
 1402      761.681       617.44
 1403       762.03       615.74
 1404      762.379        614.5
 1405      762.729       614.06
 1406      763.078        614.1
 1407      763.427        614.9
 1408      763.776       616.16
 1409      764.124       616.96
 1410      764.473       617.68
 1411      764.821       618.04
 1412      765.169       617.62
 1413      765.517       617.04
 1414      765.865       616.86
 1415      766.213       616.56
 1416      766.561       616.28
 1417      766.909       616.22
 1418      767.256       615.94
 1419      767.603       615.78
 1420       767.95       615.62
 1421      768.297       615.16
 1422      768.644       614.52
 1423      768.991        614.7
 1424      769.337       615.28
 1425      769.684        615.9
 1426       770.03       617.14
 1427      770.376       618.88
 1428      770.722        619.8
 1429      771.068        620.1
 1430      771.414       620.24
 1431      771.759       619.86
 1432      772.105       618.44
 1433       772.45       616.84
 1434      772.795       615.66
 1435       773.14       614.44
 1436      773.485        613.3
 1437       773.83       612.84
 1438      774.174       612.94
 1439      774.519       613.08
 1440      774.863       613.32
 1441      775.207        613.9
 1442      775.551       614.14
 1443      775.895       613.72
 1444      776.239       613.18
 1445      776.582       612.94
 1446      776.926       612.66
 1447      777.269       613.32
 1448      777.612       614.76
 1449      777.955       615.58
 1450      778.298       615.62
 1451      778.641       616.12
 1452      778.983       615.92
 1453      779.326       614.68
 1454      779.668       613.66
 1455       780.01       613.68
 1456      780.352       613.48
 1457      780.694        613.1
 1458      781.036        613.7
 1459      781.377       614.72
 1460      781.719       615.32
 1461       782.06        615.9
 1462      782.401        616.5
 1463      782.742       616.32
 1464      783.083       615.88
 1465      783.424       615.46
 1466      783.764       614.14
 1467      784.105       613.08
 1468      784.445       613.04
 1469      784.785       613.06
 1470      785.125       613.16
 1471      785.465        613.9
 1472      785.805       614.66
 1473      786.144        614.5
 1474      786.484       614.18
 1475      786.823       614.04
 1476      787.162       613.94
 1477      787.501       613.68
 1478       787.84       613.82
 1479      788.178       614.06
 1480      788.517       613.36
 1481      788.855       612.64
 1482      789.194       612.26
 1483      789.532       611.98
 1484       789.87       612.22
 1485      790.208       613.42
 1486      790.545       614.72
 1487      790.883       615.54
 1488       791.22       616.28
 1489      791.557       617.12
 1490      791.894       617.82
 1491      792.231          618
 1492      792.568       617.98
 1493      792.905       617.46
 1494      793.241       615.94
 1495      793.578        614.2
 1496      793.914       613.14
 1497       794.25       612.58
 1498      794.586       612.46
 1499      794.922       612.62
 1500      795.257       612.48
 1501      795.593       612.24
 1502      795.928       612.08
 1503      796.263        611.6
 1504      796.598       611.52
 1505      796.933          612
 1506      797.268       611.94
 1507      797.603        611.3
 1508      797.937       611.42
 1509      798.271       611.82
 1510      798.606       612.04
 1511       798.94       612.58
 1512      799.274       614.06
 1513      799.607        615.5
 1514      799.941       615.96
 1515      800.274          616
 1516      800.608       616.18
 1517      800.941       615.92
 1518      801.274       614.98
 1519      801.607       614.24
 1520      801.939       613.42
 1521      802.272       612.68
 1522      802.604       612.52
 1523      802.936        612.8
 1524      803.269       613.68
 1525      803.601       615.54
 1526      803.932       616.98
 1527      804.264        617.5
 1528      804.596       617.34
 1529      804.927       616.42
 1530      805.258       614.92
 1531      805.589       613.56
 1532       805.92       612.26
 1533      806.251       611.54
 1534      806.582       611.32
 1535      806.912       611.58
 1536      807.242       612.58
 1537      807.573       613.88
 1538      807.903        615.1
 1539      808.232       616.36
 1540      808.562       617.12
 1541      808.892       617.32
 1542      809.221       617.56
 1543      809.551       617.36
 1544       809.88       616.44
 1545      810.209       615.58
 1546      810.538       614.76
 1547      810.866        613.6
 1548      811.195       612.86
 1549      811.523        612.5
 1550      811.851       612.16
 1551       812.18       611.76
 1552      812.507       611.84
 1553      812.835       612.78
 1554      813.163       614.28
 1555       813.49        615.4
 1556      813.818       615.82
 1557      814.145       615.42
 1558      814.472       614.06
 1559      814.799       612.54
 1560      815.126       611.34
 1561      815.452       611.02
 1562      815.779       611.36
 1563      816.105       611.54
 1564      816.431       611.54
 1565      816.757        611.6
 1566      817.083       612.02
 1567      817.409       612.88
 1568      817.734        613.7
 1569       818.06        614.2
 1570      818.385       614.48
 1571       818.71       614.42
 1572      819.035        613.8
 1573       819.36       613.46
 1574      819.685       613.84
 1575      820.009       614.78
 1576      820.333       615.32
 1577      820.658       615.58
 1578      820.982       615.92
 1579      821.305        615.4
 1580      821.629       614.88
 1581      821.953       614.58
 1582      822.276       614.26
 1583        822.6        613.8
 1584      822.923       614.02
 1585      823.246       614.24
 1586      823.569       614.18
 1587      823.891       613.98
 1588      824.214       614.12
 1589      824.536       614.28
 1590      824.858       613.98
 1591       825.18        614.2
 1592      825.502       614.66
 1593      825.824       614.36
 1594      826.146       613.98
 1595      826.467        613.9
 1596      826.789       613.42
 1597       827.11       612.88
 1598      827.431        612.7
 1599      827.752       612.34
 1600      828.072       612.28
 1601      828.393       612.46
 1602      828.713        612.5
 1603      829.034       612.58
 1604      829.354        612.8
 1605      829.674       612.94
 1606      829.993       613.36
 1607      830.313       614.38
 1608      830.633        615.3
 1609      830.952          616
 1610      831.271        616.6
 1611       831.59       616.98
 1612      831.909       617.24
 1613      832.228       617.56
 1614      832.546        617.7
 1615      832.865        617.1
 1616      833.183       615.86
 1617      833.501        614.3
 1618      833.819       612.98
 1619      834.137       612.12
 1620      834.455       612.26
 1621      834.772       613.18
 1622      835.089       613.74
 1623      835.407       613.92
 1624      835.724       614.24
 1625       836.04       614.12
 1626      836.357        613.7
 1627      836.674       613.64
 1628       836.99        613.6
 1629      837.306       613.02
 1630      837.623       612.72
 1631      837.939        612.9
 1632      838.254       613.46
 1633       838.57        614.2
 1634      838.886          615
 1635      839.201       614.64
 1636      839.516       613.42
 1637      839.831       612.46
 1638      840.146       611.58
 1639      840.461       611.16
 1640      840.775       611.62
 1641       841.09       612.54
 1642      841.404       613.12
 1643      841.718       613.62
 1644      842.032        613.9
 1645      842.346        613.7
 1646      842.659       613.08
 1647      842.973       612.86
 1648      843.286        613.4
 1649      843.599       613.54
 1650      843.912       613.66
 1651      844.225        613.9
 1652      844.538        613.6
 1653      844.851       612.76
 1654      845.163       612.42
 1655      845.475       612.46
 1656      845.787       612.48
 1657      846.099        612.5
 1658      846.411          613
 1659      846.723       613.32
 1660      847.034       613.22
 1661      847.345        613.1
 1662      847.657       612.92
 1663      847.968        612.2
 1664      848.278       611.84
 1665      848.589       611.72
 1666        848.9       611.46
 1667       849.21       611.38
 1668       849.52        611.3
 1669       849.83       610.88
 1670       850.14        610.5
 1671       850.45       610.86
 1672      850.759       611.12
 1673      851.069       611.54
 1674      851.378        612.1
 1675      851.687        612.6
 1676      851.996       612.52
 1677      852.305       612.14
 1678      852.614        611.8
 1679      852.922        612.1
 1680       853.23       612.38
 1681      853.539       612.64
 1682      853.847       613.24
 1683      854.154       613.52
 1684      854.462       613.04
 1685       854.77       612.38
 1686      855.077       612.18
 1687      855.384       612.28
 1688      855.691       612.16
 1689      855.998       612.38
 1690      856.305       613.32
 1691      856.612       613.82
 1692      856.918       613.48
 1693      857.224       612.76
 1694       857.53        611.6
 1695      857.836       610.92
 1696      858.142       610.78
 1697      858.448       611.12
 1698      858.753       612.08
 1699      859.059       613.26
 1700      859.364       613.08
 1701      859.669       612.54
 1702      859.974        612.4
 1703      860.278       612.26
 1704      860.583       612.28
 1705      860.887        613.1
 1706      861.192        613.7
 1707      861.496        613.9
 1708        861.8       614.12
 1709      862.103       614.34
 1710      862.407        614.2
 1711       862.71       614.16
 1712      863.014       614.12
 1713      863.317       614.16
 1714       863.62       613.82
 1715      863.922       613.28
 1716      864.225       613.26
 1717      864.527       613.22
 1718       864.83          613
 1719      865.132       612.98
 1720      865.434       612.98
 1721      865.736       612.12
 1722      866.037       611.74
 1723      866.339       611.98
 1724       866.64       612.26
 1725      866.941       612.54
 1726      867.242       613.44
 1727      867.543        614.3
 1728      867.844        614.7
 1729      868.145       614.96
 1730      868.445       615.24
 1731      868.745       615.44
 1732      869.045       614.96
 1733      869.345       614.14
 1734      869.645       613.42
 1735      869.944       612.58
 1736      870.244       611.48
 1737      870.543       611.18
 1738      870.842       611.28
 1739      871.141       611.32
 1740       871.44       611.78
 1741      871.739       612.02
 1742      872.037       611.38
 1743      872.335       610.76
 1744      872.634       610.58
 1745      872.931       611.22
 1746      873.229       612.34
 1747      873.527       613.64
 1748      873.824       614.62
 1749      874.122       615.24
 1750      874.419       615.06
 1751      874.716       614.72
 1752      875.013       614.92
 1753      875.309        615.7
 1754      875.606       615.94
 1755      875.902       615.42
 1756      876.199       615.08
 1757      876.495       614.56
 1758       876.79       613.66
 1759      877.086       613.66
 1760      877.382       614.54
 1761      877.677       614.96
 1762      877.972       614.88
 1763      878.267        614.5
 1764      878.562       613.64
 1765      878.857       612.74
 1766      879.152       612.42
 1767      879.446       612.38
 1768       879.74       612.16
 1769      880.034       611.82
 1770      880.328       611.82
 1771      880.622       612.02
 1772      880.916       612.54
 1773      881.209        613.5
 1774      881.502       614.56
 1775      881.795       615.18
 1776      882.088       615.34
 1777      882.381       615.16
 1778      882.674       614.76
 1779      882.966       614.12
 1780      883.258       613.28
 1781      883.551       612.64
 1782      883.843        611.7
 1783      884.134       610.72
 1784      884.426       609.94
 1785      884.717       609.18
 1786      885.009       608.58
 1787        885.3       608.48
 1788      885.591       608.52
 1789      885.882       608.74
 1790      886.172        609.4
 1791      886.463       610.26
 1792      886.753       611.32
 1793      887.043       612.48
 1794      887.333       613.44
 1795      887.623       614.12
 1796      887.913       614.66
 1797      888.202       614.96
 1798      888.492       614.72
 1799      888.781        614.5
 1800       889.07       614.48
 1801      889.359       614.02
 1802      889.647       613.14
 1803      889.936       612.94
 1804      890.224        613.1
 1805      890.512       613.22
 1806        890.8       613.68
 1807      891.088       614.52
 1808      891.376       614.74
 1809      891.663       614.08
 1810      891.951       613.28
 1811      892.238       612.52
 1812      892.525        612.1
 1813      892.812       612.62
 1814      893.099       613.82
 1815      893.385        614.8
 1816      893.671       615.16
 1817      893.958       614.76
 1818      894.244       613.56
 1819       894.53       612.36
 1820      894.815       611.36
 1821      895.101        610.7
 1822      895.386       610.74
 1823      895.671       611.02
 1824      895.956       611.02
 1825      896.241       611.84
 1826      896.526       613.34
 1827       896.81       613.76
 1828      897.095       614.02
 1829      897.379       615.02
 1830      897.663       615.02
 1831      897.947       614.14
 1832      898.231       613.88
 1833      898.514       613.76
 1834      898.798       613.46
 1835      899.081       613.94
 1836      899.364          615
 1837      899.647       616.06
 1838      899.929        617.1
 1839      900.212        617.3
 1840      900.494       616.34
 1841      900.776       614.96
 1842      901.058       613.92
 1843       901.34       613.04
 1844      901.622       612.68
 1845      901.904        613.1
 1846      902.185        613.7
 1847      902.466       614.56
 1848      902.747       615.32
 1849      903.028       615.72
 1850      903.309       615.22
 1851      903.589        614.2
 1852       903.87       612.88
 1853       904.15       611.72
 1854       904.43       611.36
 1855       904.71       611.76
 1856      904.989       612.22
 1857      905.269       612.68
 1858      905.548       612.92
 1859      905.827       612.74
 1860      906.106        613.1
 1861      906.385       613.74
 1862      906.664       614.12
 1863      906.942       614.58
 1864      907.221       615.22
 1865      907.499       615.42
 1866      907.777       615.58
 1867      908.055       615.64
 1868      908.332       615.72
 1869       908.61       615.62
 1870      908.887       615.12
 1871      909.164        614.5
 1872      909.441       613.96
 1873      909.718        613.3
 1874      909.995       612.62
 1875      910.271       612.38
 1876      910.548       612.82
 1877      910.824       613.44
 1878        911.1       613.66
 1879      911.375          614
 1880      911.651       614.26
 1881      911.927       613.76
 1882      912.202       612.84
 1883      912.477        612.1
 1884      912.752       611.12
 1885      913.027       609.54
 1886      913.301       608.12
 1887      913.576       607.56
 1888       913.85       607.54
 1889      914.124       607.98
 1890      914.398       609.34
 1891      914.672        611.3
 1892      914.945       612.86
 1893      915.219       614.26
 1894      915.492       615.16
 1895      915.765        615.2
 1896      916.038       614.58
 1897      916.311       613.94
 1898      916.583       613.54
 1899      916.856       613.04
 1900      917.128       613.02
 1901        917.4       612.96
 1902      917.672       612.64
 1903      917.944       612.52
 1904      918.215        612.6
 1905      918.486        612.4
 1906      918.758       612.58
 1907      919.029       613.26
 1908      919.299       613.46
 1909       919.57       613.62
 1910      919.841          614
 1911      920.111       614.34
 1912      920.381       614.28
 1913      920.651       614.14
 1914      920.921       613.86
 1915      921.191       613.76
 1916       921.46       613.42
 1917      921.729       613.22
 1918      921.999       612.88
 1919      922.268       612.36
 1920      922.536        612.3
 1921      922.805        612.9
 1922      923.073       613.22
 1923      923.342       613.86
 1924       923.61       615.02
 1925      923.878       615.46
 1926      924.145       615.38
 1927      924.413       615.26
 1928       924.68        615.1
 1929      924.948       614.46
 1930      925.215       613.28
 1931      925.482       612.02
 1932      925.748       610.96
 1933      926.015       609.94
 1934      926.281       609.72
 1935      926.547       610.32
 1936      926.813       611.26
 1937      927.079       612.64
 1938      927.345       613.94
 1939       927.61       614.54
 1940      927.876       614.66
 1941      928.141       614.42
 1942      928.406        613.6
 1943      928.671       612.42
 1944      928.935       611.86
 1945        929.2       611.82
 1946      929.464       611.94
 1947      929.728       611.96
 1948      929.992       612.16
 1949      930.256       611.96
 1950       930.52       611.68
 1951      930.783       611.74
 1952      931.046       612.54
 1953      931.309       613.52
 1954      931.572          614
 1955      931.835       613.62
 1956      932.097       612.66
 1957       932.36       611.76
 1958      932.622       611.24
 1959      932.884       610.92
 1960      933.146       611.04
 1961      933.408       611.24
 1962      933.669       611.08
 1963       933.93       610.78
 1964      934.192       610.92
 1965      934.453       611.06
 1966      934.713        611.1
 1967      934.974       611.36
 1968      935.234       611.74
 1969      935.495       612.38
 1970      935.755        613.4
 1971      936.015       614.66
 1972      936.274       615.18
 1973      936.534       615.02
 1974      936.793       614.06
 1975      937.053       612.76
 1976      937.312       611.48
 1977      937.571        610.7
 1978      937.829       610.66
 1979      938.088        611.5
 1980      938.346       612.42
 1981      938.604       612.78
 1982      938.862       612.76
 1983       939.12       612.48
 1984      939.378       612.38
 1985      939.635       612.34
 1986      939.893       612.34
 1987       940.15       612.72
 1988      940.407       612.84
 1989      940.663       612.16
 1990       940.92       611.72
 1991      941.176       611.86
 1992      941.433       611.26
 1993      941.689       610.78
 1994      941.944       610.82
 1995        942.2       610.44
 1996      942.456       609.96
 1997      942.711       610.22
 1998      942.966       610.32
 1999      943.221       610.04
 2000      943.476       610.44
 2001      943.731       611.06
 2002      943.985       611.94
 2003      944.239       612.76
 2004      944.493          613
 2005      944.747        612.6
 2006      945.001       612.06
 2007      945.255        611.6
 2008      945.508       611.58
 2009      945.761       611.96
 2010      946.014       612.54
 2011      946.267       612.96
 2012       946.52        612.8
 2013      946.772        612.2
 2014      947.025       611.64
 2015      947.277        611.1
 2016      947.529        610.6
 2017      947.781       610.64
 2018      948.032       611.54
 2019      948.284       612.82
 2020      948.535       613.88
 2021      948.786       614.68
 2022      949.037       615.16
 2023      949.288       615.02
 2024      949.538       614.58
 2025      949.789       614.08
 2026      950.039       613.16
 2027      950.289       612.06
 2028      950.539       610.96
 2029      950.788       610.18
 2030      951.038        610.2
 2031      951.287       610.64
 2032      951.536       611.32
 2033      951.785       612.04
 2034      952.034       612.22
 2035      952.282       611.98
 2036      952.531       612.08
 2037      952.779       611.88
 2038      953.027       611.26
 2039      953.275       610.44
 2040      953.523       609.84
 2041       953.77        609.5
 2042      954.017        609.1
 2043      954.264       609.34
 2044      954.511       610.34
 2045      954.758       610.98
 2046      955.005        611.1
 2047      955.251      611.633
