scansci Spectrometer Data File
--- Measurement Setting ---
Type: Sample Spectrum
Date: Mon Oct 16 16:59:13 2023
User: (Reserved by scansci)
Serial: (Reserved by scansci)
Channel: No. 11
Integration Time: 1
Average: 10
Boxcar: 2
Electrical Dark: No-corrected
Time Normalize: (Reserved by scansci)
Dual-beam: (Reserved by scansci)
Reference Ch: (Reserved by scansci)
--- Measurement Data ---
Pixel   Wavelength   Intensity
    0        344.4      671.767
    1      344.867       672.05
    2      345.334       672.36
    3      345.801        672.1
    4      346.268        671.9
    5      346.735       671.94
    6      347.202       671.58
    7      347.669        671.1
    8      348.135       671.28
    9      348.602       671.08
   10      349.068       670.18
   11      349.535        669.2
   12      350.001       668.32
   13      350.467       667.44
   14      350.933       667.14
   15      351.399       667.08
   16      351.866       667.14
   17      352.331       667.28
   18      352.797       667.38
   19      353.263       667.22
   20      353.729       667.42
   21      354.194       667.92
   22       354.66       668.08
   23      355.126       668.24
   24      355.591       668.78
   25      356.056       669.56
   26      356.522       670.46
   27      356.987       671.28
   28      357.452        672.1
   29      357.917       672.68
   30      358.382        672.6
   31      358.847       672.22
   32      359.312       672.12
   33      359.776       671.86
   34      360.241       671.44
   35      360.706       671.26
   36       361.17        671.2
   37      361.634       671.06
   38      362.099       671.04
   39      362.563          671
   40      363.027       670.96
   41      363.491       670.84
   42      363.955       670.54
   43      364.419       670.24
   44      364.883       669.72
   45      365.347       669.18
   46      365.811       668.56
   47      366.274       668.12
   48      366.738       668.12
   49      367.201       668.48
   50      367.665       668.78
   51      368.128       669.14
   52      368.592        669.7
   53      369.055       669.84
   54      369.518       669.84
   55      369.981       670.06
   56      370.444       670.32
   57      370.907        670.2
   58       371.37          670
   59      371.832       669.84
   60      372.295       669.68
   61      372.757       669.42
   62       373.22       669.14
   63      373.682       668.64
   64      374.145       668.46
   65      374.607        668.7
   66      375.069       669.06
   67      375.531        669.3
   68      375.993       669.78
   69      376.455       670.14
   70      376.917       670.04
   71      377.379        669.7
   72      377.841        669.8
   73      378.302       669.98
   74      378.764       670.04
   75      379.225       670.04
   76      379.687       670.46
   77      380.148       671.04
   78      380.609       671.66
   79      381.071       672.08
   80      381.532       672.04
   81      381.993       671.68
   82      382.454        671.2
   83      382.915       670.76
   84      383.375       670.48
   85      383.836       670.26
   86      384.297       669.86
   87      384.757       669.56
   88      385.218       669.76
   89      385.678       670.04
   90      386.138       670.46
   91      386.599       671.62
   92      387.059       672.98
   93      387.519       673.88
   94      387.979       674.94
   95      388.439       676.06
   96      388.899       676.18
   97      389.358       675.16
   98      389.818       673.98
   99      390.278       673.22
  100      390.737       672.66
  101      391.197       672.54
  102      391.656       672.86
  103      392.115        672.8
  104      392.575       672.24
  105      393.034       671.78
  106      393.493        671.1
  107      393.952       670.48
  108      394.411       670.68
  109       394.87       671.08
  110      395.328       671.04
  111      395.787        671.2
  112      396.246       671.74
  113      396.704       671.94
  114      397.163       671.94
  115      397.621        672.2
  116      398.079       672.44
  117      398.537       672.22
  118      398.995        671.7
  119      399.454        671.2
  120      399.911       671.04
  121      400.369       670.92
  122      400.827       671.06
  123      401.285       671.26
  124      401.743       671.24
  125        402.2       670.94
  126      402.658       670.52
  127      403.115       670.32
  128      403.572       670.64
  129       404.03       671.26
  130      404.487       672.26
  131      404.944       673.34
  132      405.401       673.64
  133      405.858       673.04
  134      406.315       671.84
  135      406.771       670.28
  136      407.228       669.28
  137      407.685       668.92
  138      408.141       669.28
  139      408.598       670.12
  140      409.054       670.54
  141       409.51       670.38
  142      409.967        670.2
  143      410.423       669.58
  144      410.879       669.08
  145      411.335       669.36
  146      411.791       669.94
  147      412.246       670.88
  148      412.702       672.18
  149      413.158       673.62
  150      413.613       674.56
  151      414.069       674.68
  152      414.524       673.92
  153       414.98        672.9
  154      415.435       671.62
  155       415.89       670.48
  156      416.345       669.84
  157        416.8       669.64
  158      417.255        669.4
  159       417.71       668.84
  160      418.165       668.08
  161      418.619       667.14
  162      419.074        666.6
  163      419.529        666.6
  164      419.983       666.96
  165      420.437       667.48
  166      420.892       668.04
  167      421.346       668.38
  168        421.8       668.52
  169      422.254       668.28
  170      422.708       668.12
  171      423.162        668.2
  172      423.616       668.18
  173       424.07       668.64
  174      424.523       669.88
  175      424.977       670.92
  176       425.43       671.94
  177      425.884       673.24
  178      426.337       673.62
  179       426.79       673.36
  180      427.243        673.2
  181      427.697       672.22
  182       428.15       670.36
  183      428.602       668.82
  184      429.055       667.14
  185      429.508       665.52
  186      429.961       665.28
  187      430.413          666
  188      430.866       666.74
  189      431.318          668
  190      431.771       669.44
  191      432.223        670.3
  192      432.675       670.72
  193      433.127       671.02
  194      433.579        671.2
  195      434.031       671.28
  196      434.483       671.08
  197      434.935       670.86
  198      435.387        670.4
  199      435.838        669.6
  200       436.29       668.72
  201      436.741       668.32
  202      437.193       668.26
  203      437.644       668.78
  204      438.095       669.28
  205      438.546        669.8
  206      438.997       670.36
  207      439.448       670.58
  208      439.899       670.34
  209       440.35       670.58
  210      440.801       670.96
  211      441.251       671.08
  212      441.702       671.34
  213      442.152       671.78
  214      442.603        671.7
  215      443.053       671.32
  216      443.503        670.9
  217      443.954       670.32
  218      444.404        669.9
  219      444.854       669.84
  220      445.304       669.76
  221      445.753       669.86
  222      446.203       670.62
  223      446.653       671.62
  224      447.102       671.94
  225      447.552       672.14
  226      448.001       672.48
  227      448.451        672.3
  228        448.9       671.52
  229      449.349       670.84
  230      449.798       670.36
  231      450.247       669.56
  232      450.696       668.98
  233      451.145       669.08
  234      451.594        669.8
  235      452.042        670.5
  236      452.491       671.16
  237      452.939       671.72
  238      453.388       671.76
  239      453.836       671.26
  240      454.285       670.88
  241      454.733       670.74
  242      455.181        669.8
  243      455.629       668.56
  244      456.077        667.8
  245      456.525        667.4
  246      456.972       667.14
  247       457.42       667.44
  248      457.868       668.46
  249      458.315       668.96
  250      458.763        668.5
  251       459.21       668.18
  252      459.657        668.3
  253      460.104        668.3
  254      460.552        668.8
  255      460.999       669.86
  256      461.446       670.34
  257      461.892       670.48
  258      462.339       670.24
  259      462.786        669.8
  260      463.233       669.54
  261      463.679       669.42
  262      464.125       669.42
  263      464.572       669.52
  264      465.018       669.64
  265      465.464        669.7
  266       465.91       669.72
  267      466.356       669.56
  268      466.802       669.46
  269      467.248       669.52
  270      467.694       669.44
  271       468.14       669.78
  272      468.585       670.22
  273      469.031       670.54
  274      469.476       670.88
  275      469.922       671.02
  276      470.367        670.5
  277      470.812       669.78
  278      471.257        669.1
  279      471.702        668.2
  280      472.147       667.82
  281      472.592        668.3
  282      473.037       669.04
  283      473.482       669.84
  284      473.926       670.92
  285      474.371       671.48
  286      474.815       671.24
  287      475.259       670.96
  288      475.704       670.54
  289      476.148       669.68
  290      476.592          669
  291      477.036       669.44
  292       477.48       669.88
  293      477.924       670.38
  294      478.368       671.28
  295      478.811       671.76
  296      479.255       671.38
  297      479.698       671.22
  298      480.142        670.8
  299      480.585       670.16
  300      481.028       670.22
  301      481.472          670
  302      481.915       669.16
  303      482.358       668.66
  304      482.801        668.9
  305      483.244       669.38
  306      483.686       670.02
  307      484.129       670.58
  308      484.572       671.24
  309      485.014       671.22
  310      485.456       670.26
  311      485.899        669.5
  312      486.341        669.5
  313      486.783        669.7
  314      487.225       669.82
  315      487.667       670.64
  316      488.109        671.6
  317      488.551       671.86
  318      488.993       671.58
  319      489.434       671.54
  320      489.876       671.14
  321      490.318       670.08
  322      490.759       669.26
  323        491.2       668.66
  324      491.641       668.18
  325      492.083       667.78
  326      492.524       667.82
  327      492.965       667.88
  328      493.406       668.22
  329      493.846       668.84
  330      494.287        669.3
  331      494.728       669.76
  332      495.168       670.72
  333      495.609       671.22
  334      496.049       670.84
  335      496.489        670.6
  336       496.93       670.56
  337       497.37       669.68
  338       497.81        668.7
  339       498.25       668.12
  340       498.69       667.96
  341      499.129       667.92
  342      499.569       668.54
  343      500.009       669.42
  344      500.448       670.02
  345      500.888       669.98
  346      501.327       669.74
  347      501.766       669.58
  348      502.206       669.44
  349      502.645       669.62
  350      503.084       670.28
  351      503.523       671.02
  352      503.961       671.18
  353        504.4       671.26
  354      504.839       671.16
  355      505.277       670.98
  356      505.716       670.68
  357      506.154       670.24
  358      506.593       669.86
  359      507.031       669.88
  360      507.469        669.9
  361      507.907        669.9
  362      508.345       670.46
  363      508.783        671.1
  364      509.221       671.36
  365      509.659       671.32
  366      510.096       671.06
  367      510.534       670.54
  368      510.971       670.08
  369      511.409       669.82
  370      511.846       669.94
  371      512.283       670.08
  372       512.72        670.2
  373      513.157       670.14
  374      513.594       669.98
  375      514.031       669.76
  376      514.468       670.06
  377      514.905       670.84
  378      515.341       671.64
  379      515.778       672.38
  380      516.214       672.88
  381       516.65       672.84
  382      517.087       672.52
  383      517.523       672.12
  384      517.959       671.46
  385      518.395       670.78
  386      518.831       670.46
  387      519.267       670.14
  388      519.702       669.98
  389      520.138       670.22
  390      520.574       670.34
  391      521.009       670.36
  392      521.444       670.34
  393       521.88       669.76
  394      522.315       668.94
  395       522.75        668.5
  396      523.185       668.08
  397       523.62       667.64
  398      524.055       667.98
  399       524.49       668.62
  400      524.924       669.08
  401      525.359        669.1
  402      525.794       668.62
  403      526.228       668.14
  404      526.662       667.72
  405      527.097       666.84
  406      527.531       665.98
  407      527.965        665.9
  408      528.399       665.54
  409      528.833       665.16
  410      529.267       665.72
  411        529.7       666.98
  412      530.134       667.94
  413      530.568       668.82
  414      531.001       669.26
  415      531.434       668.86
  416      531.868       667.86
  417      532.301        666.6
  418      532.734       665.78
  419      533.167       665.58
  420        533.6       665.84
  421      534.033       666.48
  422      534.466       667.42
  423      534.898       667.72
  424      535.331       667.36
  425      535.763       666.82
  426      536.196       666.38
  427      536.628       666.48
  428       537.06       667.16
  429      537.493       668.18
  430      537.925       669.34
  431      538.357        670.5
  432      538.788        671.3
  433       539.22       671.92
  434      539.652       672.86
  435      540.084       673.78
  436      540.515        673.9
  437      540.947       673.66
  438      541.378       673.12
  439      541.809       672.06
  440       542.24        670.9
  441      542.672       670.46
  442      543.103       669.98
  443      543.533       669.24
  444      543.964        668.4
  445      544.395       667.52
  446      544.826       666.78
  447      545.256       666.36
  448      545.687       666.48
  449      546.117       667.18
  450      546.547       668.32
  451      546.978       669.12
  452      547.408       669.66
  453      547.838       669.88
  454      548.268       669.72
  455      548.698       669.62
  456      549.127       669.76
  457      549.557       669.84
  458      549.987       670.14
  459      550.416        670.6
  460      550.846       670.84
  461      551.275       670.78
  462      551.704       670.84
  463      552.133       670.74
  464      552.562       670.16
  465      552.991       669.18
  466       553.42       668.38
  467      553.849       667.88
  468      554.278        667.4
  469      554.706        667.2
  470      555.135       667.48
  471      555.563       667.72
  472      555.991       667.66
  473       556.42       668.12
  474      556.848       668.66
  475      557.276       668.82
  476      557.704       669.02
  477      558.132       669.58
  478       558.56        669.7
  479      558.987       669.32
  480      559.415       668.76
  481      559.843       668.32
  482       560.27       667.94
  483      560.697       667.66
  484      561.125       668.04
  485      561.552          669
  486      561.979       669.66
  487      562.406       669.88
  488      562.833       670.18
  489       563.26       670.04
  490      563.686       669.54
  491      564.113        669.1
  492       564.54        668.8
  493      564.966       668.52
  494      565.392       668.64
  495      565.819       668.72
  496      566.245       668.44
  497      566.671       668.04
  498      567.097       667.28
  499      567.523       666.38
  500      567.949       666.44
  501      568.374       667.22
  502        568.8       667.58
  503      569.226          668
  504      569.651       668.38
  505      570.077        668.6
  506      570.502       668.96
  507      570.927       669.42
  508      571.352       669.66
  509      571.777       669.96
  510      572.202       669.82
  511      572.627       669.18
  512      573.052       668.84
  513      573.476       669.16
  514      573.901        669.5
  515      574.325       669.74
  516       574.75       669.96
  517      575.174       670.22
  518      575.598       670.42
  519      576.022        670.6
  520      576.446        670.4
  521       576.87       670.18
  522      577.294       669.92
  523      577.718       669.28
  524      578.142       668.76
  525      578.565       668.72
  526      578.989        668.7
  527      579.412       668.62
  528      579.835       668.68
  529      580.259       668.68
  530      580.682       668.62
  531      581.105        668.6
  532      581.528        668.7
  533      581.951       669.18
  534      582.373       669.66
  535      582.796        670.3
  536      583.219       671.22
  537      583.641       672.06
  538      584.063        671.9
  539      584.486       671.06
  540      584.908        670.3
  541       585.33       669.18
  542      585.752       667.64
  543      586.174       667.18
  544      586.596          668
  545      587.018       668.64
  546      587.439       669.26
  547      587.861       669.84
  548      588.282       669.88
  549      588.704       669.72
  550      589.125       669.54
  551      589.546       669.56
  552      589.967       670.16
  553      590.388        670.9
  554      590.809       670.92
  555       591.23       670.74
  556      591.651       670.68
  557      592.071       670.14
  558      592.492       669.08
  559      592.912        668.4
  560      593.333       667.98
  561      593.753       667.34
  562      594.173        666.9
  563      594.593          667
  564      595.013       667.38
  565      595.433        667.6
  566      595.853       667.86
  567      596.273       668.72
  568      596.693       669.64
  569      597.112        670.1
  570      597.532       670.68
  571      597.951       671.28
  572       598.37        671.6
  573      598.789        671.7
  574      599.208       671.64
  575      599.627       671.14
  576      600.046        670.9
  577      600.465       670.68
  578      600.884       670.52
  579      601.303       670.66
  580      601.721       671.08
  581      602.139       670.98
  582      602.558       670.54
  583      602.976       669.96
  584      603.394       669.18
  585      603.812       668.46
  586       604.23        667.8
  587      604.648       667.74
  588      605.066       668.08
  589      605.484        668.6
  590      605.901       669.44
  591      606.319       670.68
  592      606.736       671.62
  593      607.154        672.2
  594      607.571       672.48
  595      607.988       671.76
  596      608.405       670.74
  597      608.822       669.76
  598      609.239        669.1
  599      609.656        668.5
  600      610.072       668.32
  601      610.489       668.36
  602      610.905       668.64
  603      611.322       668.92
  604      611.738        669.2
  605      612.154       669.46
  606       612.57       669.14
  607      612.986       668.48
  608      613.402       667.88
  609      613.818       667.18
  610      614.234       666.58
  611       614.65       666.74
  612      615.065       667.18
  613      615.481       667.14
  614      615.896       667.12
  615      616.311       667.02
  616      616.727       666.56
  617      617.142       666.08
  618      617.557       665.96
  619      617.972       666.04
  620      618.386       666.46
  621      618.801       667.04
  622      619.216       667.46
  623       619.63        667.8
  624      620.045       667.82
  625      620.459       667.52
  626      620.873       667.34
  627      621.287       667.38
  628      621.702        667.5
  629      622.116       667.78
  630      622.529       668.42
  631      622.943       669.02
  632      623.357        669.2
  633      623.771       669.08
  634      624.184       668.92
  635      624.597       668.56
  636      625.011       668.44
  637      625.424       668.44
  638      625.837       668.58
  639       626.25       668.98
  640      626.663       669.48
  641      627.076       669.56
  642      627.489       669.58
  643      627.901       669.88
  644      628.314       670.44
  645      628.726       670.46
  646      629.139       670.18
  647      629.551        670.3
  648      629.963       670.06
  649      630.375       669.46
  650      630.787        669.3
  651      631.199       669.54
  652      631.611       669.76
  653      632.023          670
  654      632.434       669.98
  655      632.846       669.88
  656      633.257       669.78
  657      633.669       669.78
  658       634.08        669.5
  659      634.491          669
  660      634.902       668.52
  661      635.313        668.4
  662      635.724       668.48
  663      636.135       669.02
  664      636.545       669.58
  665      636.956       670.02
  666      637.366       669.76
  667      637.777       669.12
  668      638.187        667.9
  669      638.597       666.74
  670      639.007       666.08
  671      639.417        666.3
  672      639.827       666.42
  673      640.237       666.94
  674      640.647       668.08
  675      641.056       669.26
  676      641.466        669.9
  677      641.875       670.22
  678      642.285       670.66
  679      642.694        671.3
  680      643.103       671.76
  681      643.512       671.74
  682      643.921        671.6
  683       644.33       671.66
  684      644.739        671.5
  685      645.148       671.14
  686      645.556       671.46
  687      645.965       671.88
  688      646.373       671.58
  689      646.781       671.02
  690      647.189        670.4
  691      647.598       669.48
  692      648.006       668.84
  693      648.414       668.92
  694      648.821       669.14
  695      649.229       669.46
  696      649.637       669.96
  697      650.044       670.64
  698      650.452       670.64
  699      650.859        670.5
  700      651.266        670.6
  701      651.673        670.8
  702       652.08       670.46
  703      652.487       670.28
  704      652.894       670.04
  705      653.301       669.38
  706      653.708       668.44
  707      654.114       667.76
  708      654.521       667.68
  709      654.927       668.16
  710      655.333       668.94
  711       655.74       669.86
  712      656.146       670.86
  713      656.552       671.34
  714      656.958        671.3
  715      657.363        671.3
  716      657.769       670.92
  717      658.175       670.24
  718       658.58       669.98
  719      658.986       669.42
  720      659.391       668.24
  721      659.796       667.28
  722      660.201       666.56
  723      660.606       665.96
  724      661.011       666.04
  725      661.416       666.56
  726      661.821       666.98
  727      662.225       667.16
  728       662.63          667
  729      663.034       666.76
  730      663.439       666.76
  731      663.843       666.96
  732      664.247        667.3
  733      664.651       667.84
  734      665.055        668.6
  735      665.459       669.42
  736      665.863       670.18
  737      666.267       670.78
  738       666.67       670.98
  739      667.074       670.38
  740      667.477        669.2
  741       667.88        668.2
  742      668.283       667.86
  743      668.687       667.78
  744       669.09       667.68
  745      669.492       667.52
  746      669.895       667.28
  747      670.298       666.82
  748      670.701       666.88
  749      671.103        667.7
  750      671.505       668.34
  751      671.908       668.66
  752       672.31          669
  753      672.712       668.98
  754      673.114        668.7
  755      673.516       668.96
  756      673.918        669.7
  757       674.32       670.14
  758      674.721        670.1
  759      675.123        670.4
  760      675.524        671.1
  761      675.926        671.3
  762      676.327        671.4
  763      676.728       671.64
  764      677.129       671.24
  765       677.53       670.52
  766      677.931       670.32
  767      678.332       670.26
  768      678.732        670.2
  769      679.133       670.24
  770      679.533       669.96
  771      679.934       669.42
  772      680.334       668.78
  773      680.734       668.16
  774      681.134       667.72
  775      681.534       667.46
  776      681.934       667.36
  777      682.334       667.46
  778      682.733       667.74
  779      683.133       668.24
  780      683.532       669.08
  781      683.932       669.92
  782      684.331       670.42
  783       684.73       670.46
  784      685.129       670.02
  785      685.528        669.5
  786      685.927       668.98
  787      686.326       668.64
  788      686.725       668.54
  789      687.123       668.86
  790      687.522       669.04
  791       687.92        669.3
  792      688.319        669.7
  793      688.717       670.24
  794      689.115       671.04
  795      689.513       671.96
  796      689.911       672.54
  797      690.309       672.36
  798      690.706       672.12
  799      691.104        671.6
  800      691.501       670.92
  801      691.899       670.52
  802      692.296       670.52
  803      692.693       670.22
  804       693.09       669.92
  805      693.488       669.96
  806      693.884       669.72
  807      694.281       669.76
  808      694.678       670.44
  809      695.075       670.88
  810      695.471       671.02
  811      695.868       671.26
  812      696.264        671.2
  813       696.66       670.86
  814      697.056       670.58
  815      697.452       670.16
  816      697.848       669.64
  817      698.244       669.52
  818       698.64        669.9
  819      699.035       670.44
  820      699.431       671.02
  821      699.826       671.44
  822      700.222       671.56
  823      700.617       671.36
  824      701.012        671.2
  825      701.407       670.98
  826      701.802       670.38
  827      702.197       670.22
  828      702.592       670.56
  829      702.986       671.04
  830      703.381       671.74
  831      703.775       672.84
  832       704.17       673.66
  833      704.564       673.84
  834      704.958       673.52
  835      705.352        672.7
  836      705.746       671.88
  837       706.14       671.26
  838      706.533       671.02
  839      706.927       671.38
  840      707.321       672.08
  841      707.714       672.66
  842      708.107       672.54
  843      708.501       671.68
  844      708.894       670.18
  845      709.287       668.64
  846       709.68       667.56
  847      710.073       666.94
  848      710.465       666.74
  849      710.858       667.14
  850      711.251       667.86
  851      711.643       668.84
  852      712.035       669.92
  853      712.428        670.5
  854       712.82       670.42
  855      713.212       670.26
  856      713.604       669.94
  857      713.995        669.5
  858      714.387        669.5
  859      714.779       670.28
  860       715.17        671.1
  861      715.562       671.14
  862      715.953       670.84
  863      716.344       670.98
  864      716.735       670.98
  865      717.127       670.72
  866      717.517       670.78
  867      717.908        671.4
  868      718.299       671.24
  869       718.69       670.38
  870       719.08        669.7
  871      719.471        669.3
  872      719.861       669.02
  873      720.251        668.7
  874      720.641       668.92
  875      721.031       669.78
  876      721.421       670.54
  877      721.811       670.64
  878      722.201       671.08
  879       722.59       671.46
  880       722.98       671.04
  881      723.369        670.2
  882      723.759       669.16
  883      724.148       668.22
  884      724.537       667.58
  885      724.926        667.7
  886      725.315       668.26
  887      725.704       669.16
  888      726.092        670.1
  889      726.481        670.4
  890       726.87       670.12
  891      727.258       669.92
  892      727.646       669.82
  893      728.034       669.66
  894      728.423        669.9
  895      728.811       669.92
  896      729.198          670
  897      729.586       670.42
  898      729.974       670.84
  899      730.362       671.16
  900      730.749       671.32
  901      731.136       671.14
  902      731.524       671.22
  903      731.911          671
  904      732.298       670.04
  905      732.685        668.9
  906      733.072       668.12
  907      733.459        667.5
  908      733.845       667.38
  909      734.232       667.96
  910      734.618       669.12
  911      735.005       670.08
  912      735.391       670.14
  913      735.777       669.78
  914      736.163       669.74
  915      736.549        669.8
  916      736.935       670.02
  917      737.321       670.76
  918      737.706        671.9
  919      738.092        673.3
  920      738.477        674.4
  921      738.863        674.7
  922      739.248       674.74
  923      739.633       674.62
  924      740.018       673.48
  925      740.403        672.3
  926      740.788       671.42
  927      741.173       670.06
  928      741.557       668.78
  929      741.942       668.22
  930      742.326        667.6
  931      742.711        667.3
  932      743.095       667.58
  933      743.479       667.46
  934      743.863        667.4
  935      744.247       667.66
  936      744.631       667.78
  937      745.015       667.92
  938      745.398          668
  939      745.782       667.54
  940      746.165       667.18
  941      746.548        666.9
  942      746.932        666.6
  943      747.315       666.96
  944      747.698       667.76
  945      748.081       668.14
  946      748.463       668.44
  947      748.846       668.76
  948      749.229        668.2
  949      749.611       667.54
  950      749.993       667.82
  951      750.376        668.3
  952      750.758       668.64
  953       751.14       669.34
  954      751.522       669.98
  955      751.904       670.04
  956      752.285       670.06
  957      752.667       670.24
  958      753.049       670.64
  959       753.43       670.94
  960      753.811       670.94
  961      754.193        670.7
  962      754.574        670.4
  963      754.955        670.5
  964      755.336       670.86
  965      755.717        670.8
  966      756.097       671.12
  967      756.478       671.88
  968      756.858       671.72
  969      757.239       670.84
  970      757.619       670.94
  971      757.999       671.06
  972      758.379       670.36
  973      758.759       669.94
  974      759.139       669.96
  975      759.519       669.46
  976      759.899       668.84
  977      760.278       668.52
  978      760.658       668.62
  979      761.037       668.92
  980      761.417        668.9
  981      761.796       668.66
  982      762.175        668.8
  983      762.554        668.7
  984      762.933        668.5
  985      763.311       668.98
  986       763.69       669.84
  987      764.068       670.34
  988      764.447       670.56
  989      764.825       670.56
  990      765.203       670.44
  991      765.582       670.04
  992       765.96       669.72
  993      766.338       669.72
  994      766.715        669.5
  995      767.093       668.82
  996      767.471       668.24
  997      767.848       667.92
  998      768.226       667.92
  999      768.603       668.36
 1000       768.98       669.06
 1001      769.357       669.72
 1002      769.734        670.2
 1003      770.111       670.42
 1004      770.488       670.44
 1005      770.864        670.3
 1006      771.241       670.02
 1007      771.617       670.08
 1008      771.994          670
 1009       772.37       669.84
 1010      772.746       669.68
 1011      773.122       670.14
 1012      773.498       670.72
 1013      773.874       670.92
 1014       774.25       670.92
 1015      774.625       671.14
 1016      775.001       670.92
 1017      775.376        669.9
 1018      775.751       669.42
 1019      776.127        669.6
 1020      776.502       669.52
 1021      776.877       669.24
 1022      777.252       669.22
 1023      777.626        669.2
 1024      778.001       668.94
 1025      778.375       668.94
 1026       778.75       669.26
 1027      779.124        669.7
 1028      779.499        669.7
 1029      779.873       669.84
 1030      780.247       670.54
 1031      780.621       670.94
 1032      780.994       670.92
 1033      781.368       671.06
 1034      781.742       670.98
 1035      782.115       670.28
 1036      782.489       669.86
 1037      782.862       670.02
 1038      783.235       670.48
 1039      783.608       670.56
 1040      783.981       670.52
 1041      784.354       670.68
 1042      784.727       670.36
 1043        785.1       669.52
 1044      785.472       669.42
 1045      785.845        669.7
 1046      786.217       669.68
 1047      786.589       669.84
 1048      786.961       670.42
 1049      787.333       670.74
 1050      787.705       670.52
 1051      788.077       670.08
 1052      788.449        669.4
 1053       788.82        668.6
 1054      789.192       667.74
 1055      789.563       667.06
 1056      789.934       666.46
 1057      790.306       666.02
 1058      790.677       665.38
 1059      791.048        664.7
 1060      791.419        664.5
 1061      791.789        664.6
 1062       792.16       664.92
 1063       792.53       666.14
 1064      792.901       667.58
 1065      793.271       668.48
 1066      793.641          669
 1067      794.012        669.7
 1068      794.382       670.28
 1069      794.751       670.44
 1070      795.121       670.54
 1071      795.491       670.76
 1072      795.861        670.5
 1073       796.23        669.9
 1074      796.599        669.3
 1075      796.969       668.78
 1076      797.338       668.38
 1077      797.707       667.92
 1078      798.076       667.38
 1079      798.445        667.5
 1080      798.813       667.68
 1081      799.182        667.6
 1082       799.55        668.2
 1083      799.919       668.96
 1084      800.287       669.22
 1085      800.655       669.58
 1086      801.023       669.82
 1087      801.391       669.44
 1088      801.759       668.98
 1089      802.127       668.94
 1090      802.495       668.96
 1091      802.862       668.84
 1092       803.23       668.84
 1093      803.597       668.92
 1094      803.964       669.06
 1095      804.331       669.18
 1096      804.698        669.8
 1097      805.065       670.26
 1098      805.432       670.24
 1099      805.799       669.48
 1100      806.165       668.62
 1101      806.532       667.88
 1102      806.898       667.58
 1103      807.264       667.68
 1104      807.631        668.1
 1105      807.997       668.88
 1106      808.363       669.62
 1107      808.728       670.12
 1108      809.094       670.28
 1109       809.46       670.28
 1110      809.825       670.28
 1111      810.191       670.22
 1112      810.556       669.86
 1113      810.921       669.96
 1114      811.286        670.3
 1115      811.651       669.98
 1116      812.016       669.34
 1117      812.381       668.66
 1118      812.745        667.6
 1119       813.11       667.02
 1120      813.474        667.1
 1121      813.839       667.36
 1122      814.203       668.16
 1123      814.567       669.68
 1124      814.931       670.88
 1125      815.295       671.68
 1126      815.659        672.6
 1127      816.022       673.04
 1128      816.386        672.5
 1129      816.749       671.56
 1130      817.113       670.56
 1131      817.476        669.6
 1132      817.839       668.84
 1133      818.202       668.36
 1134      818.565       667.82
 1135      818.928        667.5
 1136      819.291        667.5
 1137      819.653        667.7
 1138      820.016        668.2
 1139      820.378        669.1
 1140       820.74       669.88
 1141      821.102       669.68
 1142      821.464       669.06
 1143      821.826       668.18
 1144      822.188       667.14
 1145       822.55        666.4
 1146      822.912       666.52
 1147      823.273       666.78
 1148      823.634        667.2
 1149      823.996       668.36
 1150      824.357       669.58
 1151      824.718       670.28
 1152      825.079       671.06
 1153       825.44       671.72
 1154      825.801       671.48
 1155      826.161       670.92
 1156      826.522       670.54
 1157      826.882       670.22
 1158      827.242       669.64
 1159      827.603       669.16
 1160      827.963       668.74
 1161      828.323       668.46
 1162      828.682       668.46
 1163      829.042       668.74
 1164      829.402       669.06
 1165      829.761       669.14
 1166      830.121       669.36
 1167       830.48       669.38
 1168      830.839       669.44
 1169      831.198        669.9
 1170      831.557       670.84
 1171      831.916       671.28
 1172      832.275        671.3
 1173      832.634       671.22
 1174      832.992       670.86
 1175      833.351       670.46
 1176      833.709       670.34
 1177      834.067        670.2
 1178      834.425       669.86
 1179      834.783        669.1
 1180      835.141       668.22
 1181      835.499       667.66
 1182      835.857       667.34
 1183      836.214       667.58
 1184      836.572       668.36
 1185      836.929       669.28
 1186      837.286       670.18
 1187      837.644       671.18
 1188      838.001       671.94
 1189      838.357       672.26
 1190      838.714       672.14
 1191      839.071       672.04
 1192      839.428       672.34
 1193      839.784       672.18
 1194       840.14       671.74
 1195      840.497       670.78
 1196      840.853       669.64
 1197      841.209       668.86
 1198      841.565       668.38
 1199       841.92       668.22
 1200      842.276       668.78
 1201      842.632        669.8
 1202      842.987       670.44
 1203      843.343       670.98
 1204      843.698       671.62
 1205      844.053       672.06
 1206      844.408       671.96
 1207      844.763        671.3
 1208      845.118       670.92
 1209      845.472       670.64
 1210      845.827       670.38
 1211      846.181       670.26
 1212      846.536       670.22
 1213       846.89       670.18
 1214      847.244       670.36
 1215      847.598       670.62
 1216      847.952       670.38
 1217      848.306       670.08
 1218       848.66       669.86
 1219      849.013       669.78
 1220      849.367       669.94
 1221       849.72       670.58
 1222      850.073       671.66
 1223      850.427       672.04
 1224       850.78       671.68
 1225      851.133       671.04
 1226      851.485        670.3
 1227      851.838       669.48
 1228      852.191       669.12
 1229      852.543       668.78
 1230      852.896       668.42
 1231      853.248       668.08
 1232        853.6       667.84
 1233      853.952       667.92
 1234      854.304       668.22
 1235      854.656        668.7
 1236      855.007       669.18
 1237      855.359        669.4
 1238       855.71       669.08
 1239      856.062       669.02
 1240      856.413       669.26
 1241      856.764       669.54
 1242      857.115       669.62
 1243      857.466       669.74
 1244      857.817       669.56
 1245      858.168       668.74
 1246      858.518        667.6
 1247      858.869       666.72
 1248      859.219        666.6
 1249      859.569       666.94
 1250       859.92       667.04
 1251       860.27          667
 1252      860.619       667.42
 1253      860.969       667.64
 1254      861.319       667.64
 1255      861.669       668.54
 1256      862.018       669.52
 1257      862.367        669.7
 1258      862.717        669.8
 1259      863.066        669.8
 1260      863.415       669.34
 1261      863.764       669.32
 1262      864.112        669.7
 1263      864.461       669.96
 1264       864.81        670.1
 1265      865.158        670.1
 1266      865.507       669.96
 1267      865.855       669.92
 1268      866.203       669.78
 1269      866.551       669.66
 1270      866.899       669.68
 1271      867.247       669.56
 1272      867.594        669.2
 1273      867.942       669.12
 1274      868.289       669.42
 1275      868.637       669.88
 1276      868.984       670.58
 1277      869.331        670.8
 1278      869.678       670.46
 1279      870.025       670.22
 1280      870.372       670.08
 1281      870.718       669.84
 1282      871.065       670.02
 1283      871.411        670.4
 1284      871.758       670.16
 1285      872.104       669.88
 1286       872.45       670.02
 1287      872.796       670.22
 1288      873.142       670.24
 1289      873.488       671.06
 1290      873.833        671.9
 1291      874.179        672.1
 1292      874.524       672.38
 1293      874.869       672.84
 1294      875.215       672.52
 1295       875.56       671.62
 1296      875.905        670.7
 1297       876.25        669.9
 1298      876.594       669.16
 1299      876.939       669.16
 1300      877.283        670.1
 1301      877.628       671.22
 1302      877.972       671.76
 1303      878.316       671.98
 1304       878.66       671.94
 1305      879.004       671.52
 1306      879.348       670.62
 1307      879.692       669.98
 1308      880.035       669.98
 1309      880.379       669.62
 1310      880.722       668.78
 1311      881.066       668.78
 1312      881.409       669.32
 1313      881.752       669.32
 1314      882.095        669.4
 1315      882.438       669.58
 1316       882.78       669.24
 1317      883.123        668.5
 1318      883.465       668.26
 1319      883.808        668.3
 1320       884.15        668.6
 1321      884.492       668.84
 1322      884.834        669.1
 1323      885.176       669.18
 1324      885.518       669.12
 1325      885.859       669.48
 1326      886.201        669.9
 1327      886.542       669.72
 1328      886.884       669.32
 1329      887.225       669.02
 1330      887.566       668.68
 1331      887.907       668.24
 1332      888.248        668.4
 1333      888.589       668.86
 1334      888.929       669.38
 1335       889.27       669.64
 1336       889.61       670.44
 1337      889.951       671.06
 1338      890.291       671.18
 1339      890.631       671.16
 1340      890.971       670.92
 1341      891.311       670.38
 1342       891.65       670.48
 1343       891.99          671
 1344      892.329          671
 1345      892.669       670.76
 1346      893.008        670.4
 1347      893.347       669.54
 1348      893.686       668.62
 1349      894.025       668.16
 1350      894.364       668.28
 1351      894.703       668.92
 1352      895.041       669.12
 1353       895.38       668.92
 1354      895.718       668.68
 1355      896.056       668.52
 1356      896.395       668.56
 1357      896.733       669.26
 1358      897.071        670.3
 1359      897.408       671.32
 1360      897.746        672.3
 1361      898.084       672.42
 1362      898.421       671.92
 1363      898.758       671.72
 1364      899.095        671.5
 1365      899.433       670.66
 1366       899.77       669.94
 1367      900.106       669.54
 1368      900.443       669.48
 1369       900.78       669.88
 1370      901.116       670.78
 1371      901.453       671.68
 1372      901.789       672.42
 1373      902.125       672.32
 1374      902.461       671.66
 1375      902.797       671.02
 1376      903.133       670.52
 1377      903.469       669.86
 1378      903.804       669.08
 1379       904.14       668.52
 1380      904.475       667.86
 1381       904.81       667.58
 1382      905.146          668
 1383      905.481       668.72
 1384      905.815       669.34
 1385       906.15       670.04
 1386      906.485       670.42
 1387      906.819       670.02
 1388      907.154       669.58
 1389      907.488       669.52
 1390      907.822        669.2
 1391      908.156       668.98
 1392       908.49       669.52
 1393      908.824       670.12
 1394      909.158       670.36
 1395      909.492        670.9
 1396      909.825        671.5
 1397      910.159       672.24
 1398      910.492       672.38
 1399      910.825        671.9
 1400      911.158       671.58
 1401      911.491       671.26
 1402      911.824       670.58
 1403      912.157          671
 1404      912.489       671.72
 1405      912.822       672.08
 1406      913.154       672.22
 1407      913.486          672
 1408      913.818       671.28
 1409       914.15       671.02
 1410      914.482       670.78
 1411      914.814        670.9
 1412      915.146       671.26
 1413      915.477       671.24
 1414      915.809        671.1
 1415       916.14       671.02
 1416      916.471       670.58
 1417      916.802       669.96
 1418      917.133        669.9
 1419      917.464       669.82
 1420      917.795       669.74
 1421      918.125        669.8
 1422      918.456       670.24
 1423      918.786       670.28
 1424      919.116       670.06
 1425      919.446       669.46
 1426      919.776        668.6
 1427      920.106       668.24
 1428      920.436       668.32
 1429      920.766       668.82
 1430      921.095       669.74
 1431      921.425       670.92
 1432      921.754       671.82
 1433      922.083       672.54
 1434      922.412       672.36
 1435      922.741       671.52
 1436       923.07       670.36
 1437      923.399       668.92
 1438      923.727       667.34
 1439      924.056       666.88
 1440      924.384       667.46
 1441      924.713        668.4
 1442      925.041       669.14
 1443      925.369       669.64
 1444      925.697       670.06
 1445      926.024       670.34
 1446      926.352       670.32
 1447       926.68       670.26
 1448      927.007       670.62
 1449      927.334       670.66
 1450      927.662       670.08
 1451      927.989        669.5
 1452      928.316       669.22
 1453      928.643       669.16
 1454      928.969       669.26
 1455      929.296       669.38
 1456      929.622        669.7
 1457      929.949        669.7
 1458      930.275       669.48
 1459      930.601       669.14
 1460      930.927       668.84
 1461      931.253       668.48
 1462      931.579        668.4
 1463      931.905       668.66
 1464       932.23       668.98
 1465      932.556       669.02
 1466      932.881        669.2
 1467      933.206       669.48
 1468      933.531       669.36
 1469      933.856          669
 1470      934.181       668.94
 1471      934.506       669.06
 1472       934.83       669.24
 1473      935.155       669.16
 1474      935.479       669.36
 1475      935.803       670.06
 1476      936.128       670.38
 1477      936.452       670.44
 1478      936.775       670.94
 1479      937.099       671.02
 1480      937.423       670.72
 1481      937.746       670.48
 1482       938.07       670.66
 1483      938.393        670.9
 1484      938.716       670.94
 1485      939.039        670.6
 1486      939.362       670.18
 1487      939.685       669.92
 1488      940.008       669.54
 1489      940.331          670
 1490      940.653        670.9
 1491      940.975       671.84
 1492      941.298       672.46
 1493       941.62       672.78
 1494      941.942        672.5
 1495      942.264        672.2
 1496      942.585       672.08
 1497      942.907       671.34
 1498      943.229       670.04
 1499       943.55       668.86
 1500      943.871       667.76
 1501      944.192       666.88
 1502      944.513       666.66
 1503      944.834       667.24
 1504      945.155       667.88
 1505      945.476       668.22
 1506      945.796       668.22
 1507      946.117       668.64
 1508      946.437       669.46
 1509      946.757       670.24
 1510      947.078        671.1
 1511      947.398        671.8
 1512      947.717       671.32
 1513      948.037       670.28
 1514      948.357       669.36
 1515      948.676       668.48
 1516      948.996       668.28
 1517      949.315       668.22
 1518      949.634        668.1
 1519      949.953       667.98
 1520      950.272       667.76
 1521      950.591        667.1
 1522      950.909       666.94
 1523      951.228       666.94
 1524      951.546       666.62
 1525      951.865       666.64
 1526      952.183        666.6
 1527      952.501       666.52
 1528      952.819       666.72
 1529      953.137       667.58
 1530      953.454       668.48
 1531      953.772       668.98
 1532      954.089       668.94
 1533      954.407       668.76
 1534      954.724       668.16
 1535      955.041       667.44
 1536      955.358       667.48
 1537      955.675       668.02
 1538      955.992        668.7
 1539      956.308       669.26
 1540      956.625        669.5
 1541      956.941       669.42
 1542      957.257       669.32
 1543      957.574       668.94
 1544       957.89       668.66
 1545      958.206       668.64
 1546      958.521       668.72
 1547      958.837       669.06
 1548      959.152       669.54
 1549      959.468        669.9
 1550      959.783       669.86
 1551      960.098        669.8
 1552      960.413       669.68
 1553      960.728        669.6
 1554      961.043        669.6
 1555      961.358       669.92
 1556      961.672       670.34
 1557      961.987       670.36
 1558      962.301       669.94
 1559      962.615       669.76
 1560       962.93        670.1
 1561      963.244       670.26
 1562      963.557       670.58
 1563      963.871        670.9
 1564      964.185        671.5
 1565      964.498        671.9
 1566      964.812       672.24
 1567      965.125        672.2
 1568      965.438       672.08
 1569      965.751       671.56
 1570      966.064       671.14
 1571      966.377        671.1
 1572      966.689        671.3
 1573      967.002       671.88
 1574      967.314       672.46
 1575      967.626       672.44
 1576      967.939       671.96
 1577      968.251       671.36
 1578      968.563        670.7
 1579      968.874       670.02
 1580      969.186        669.9
 1581      969.498       670.04
 1582      969.809       670.28
 1583       970.12       670.34
 1584      970.431       670.26
 1585      970.743       669.96
 1586      971.053       669.48
 1587      971.364       669.38
 1588      971.675       669.66
 1589      971.986       669.98
 1590      972.296       669.94
 1591      972.606       670.04
 1592      972.917       670.14
 1593      973.227       670.02
 1594      973.537       670.02
 1595      973.847       670.26
 1596      974.156       670.28
 1597      974.466       670.44
 1598      974.775          671
 1599      975.085        671.4
 1600      975.394        671.5
 1601      975.703        671.4
 1602      976.012       670.54
 1603      976.321       669.28
 1604       976.63       668.12
 1605      976.938       667.04
 1606      977.247       666.12
 1607      977.555       665.46
 1608      977.863       664.78
 1609      978.172       664.54
 1610       978.48       664.54
 1611      978.787       664.38
 1612      979.095       664.36
 1613      979.403       664.78
 1614       979.71       664.78
 1615      980.018       665.04
 1616      980.325       665.96
 1617      980.632        667.2
 1618      980.939       668.14
 1619      981.246       669.02
 1620      981.553       669.24
 1621       981.86          669
 1622      982.166       669.02
 1623      982.473        668.9
 1624      982.779        668.3
 1625      983.085       667.94
 1626      983.391       667.54
 1627      983.697       666.46
 1628      984.003       665.54
 1629      984.309       665.36
 1630      984.614       665.44
 1631       984.92        665.9
 1632      985.225       666.42
 1633       985.53          667
 1634      985.835       667.38
 1635       986.14       667.94
 1636      986.445       668.58
 1637       986.75       669.12
 1638      987.054       669.48
 1639      987.359       670.42
 1640      987.663       671.34
 1641      987.967       671.78
 1642      988.271        672.1
 1643      988.575       672.12
 1644      988.879       671.58
 1645      989.183          671
 1646      989.487        670.4
 1647       989.79       669.52
 1648      990.093       669.12
 1649      990.397        668.7
 1650        990.7       668.06
 1651      991.003       668.08
 1652      991.306       668.68
 1653      991.608        669.1
 1654      991.911        669.5
 1655      992.213       669.72
 1656      992.516       669.44
 1657      992.818       669.24
 1658       993.12        669.1
 1659      993.422       669.04
 1660      993.724       669.28
 1661      994.026       669.54
 1662      994.327       670.22
 1663      994.629       671.24
 1664       994.93       671.92
 1665      995.232        672.2
 1666      995.533       672.28
 1667      995.834       671.94
 1668      996.135       671.14
 1669      996.435       670.42
 1670      996.736       669.88
 1671      997.036       669.56
 1672      997.337       669.76
 1673      997.637       670.32
 1674      997.937       670.32
 1675      998.237       669.58
 1676      998.537       669.14
 1677      998.837       668.32
 1678      999.137       667.44
 1679      999.436        667.4
 1680      999.735        668.3
 1681      1000.03       669.18
 1682      1000.33       670.02
 1683      1000.63       670.28
 1684      1000.93       669.92
 1685      1001.23       669.76
 1686      1001.53       669.72
 1687      1001.83       669.68
 1688      1002.13       669.68
 1689      1002.42       670.14
 1690      1002.72       670.36
 1691      1003.02       670.28
 1692      1003.32       670.02
 1693      1003.62       670.06
 1694      1003.91        670.3
 1695      1004.21       670.32
 1696      1004.51       669.88
 1697      1004.81       669.38
 1698       1005.1       669.34
 1699       1005.4       669.46
 1700       1005.7       669.78
 1701      1005.99       670.98
 1702      1006.29       672.42
 1703      1006.59       673.18
 1704      1006.88       673.32
 1705      1007.18          673
 1706      1007.48       671.72
 1707      1007.77       670.22
 1708      1008.07          669
 1709      1008.36       667.84
 1710      1008.66       667.28
 1711      1008.95       667.46
 1712      1009.25        667.4
 1713      1009.55       667.32
 1714      1009.84       668.04
 1715      1010.14       669.06
 1716      1010.43        669.9
 1717      1010.73       670.74
 1718      1011.02        671.3
 1719      1011.31       671.32
 1720      1011.61       670.44
 1721       1011.9       669.32
 1722       1012.2       668.82
 1723      1012.49       668.74
 1724      1012.79       668.82
 1725      1013.08       669.42
 1726      1013.37       669.82
 1727      1013.67       669.64
 1728      1013.96       669.46
 1729      1014.25       668.86
 1730      1014.55       668.16
 1731      1014.84       667.84
 1732      1015.13       667.56
 1733      1015.42       667.38
 1734      1015.72       667.38
 1735      1016.01        667.1
 1736       1016.3       666.82
 1737      1016.59       667.28
 1738      1016.89        668.1
 1739      1017.18       668.66
 1740      1017.47       669.18
 1741      1017.76       669.18
 1742      1018.05       668.36
 1743      1018.35       667.16
 1744      1018.64       666.86
 1745      1018.93       667.28
 1746      1019.22       668.18
 1747      1019.51       669.32
 1748       1019.8       670.08
 1749      1020.09        670.4
 1750      1020.38       670.36
 1751      1020.67       670.06
 1752      1020.96        669.4
 1753      1021.25       668.72
 1754      1021.54        668.4
 1755      1021.83       668.44
 1756      1022.12        668.5
 1757      1022.41       669.18
 1758       1022.7        670.2
 1759      1022.99        670.4
 1760      1023.28       670.08
 1761      1023.57          670
 1762      1023.86       669.54
 1763      1024.15       669.08
 1764      1024.44        669.2
 1765      1024.73       669.34
 1766      1025.02       669.38
 1767       1025.3       669.78
 1768      1025.59        670.1
 1769      1025.88       669.86
 1770      1026.17       669.42
 1771      1026.46       668.88
 1772      1026.74       668.04
 1773      1027.03       667.18
 1774      1027.32       667.14
 1775      1027.61        667.8
 1776      1027.89       668.62
 1777      1028.18       669.64
 1778      1028.47       670.46
 1779      1028.76       670.74
 1780      1029.04       670.66
 1781      1029.33       670.52
 1782      1029.62       670.18
 1783       1029.9       669.58
 1784      1030.19       668.84
 1785      1030.47       668.42
 1786      1030.76       668.18
 1787      1031.05       668.24
 1788      1031.33       668.98
 1789      1031.62       669.98
 1790       1031.9       670.78
 1791      1032.19       671.48
 1792      1032.47       671.74
 1793      1032.76        671.6
 1794      1033.04       671.22
 1795      1033.33       670.82
 1796      1033.61       670.66
 1797       1033.9       670.58
 1798      1034.18       670.36
 1799      1034.47        670.2
 1800      1034.75       669.78
 1801      1035.04       669.22
 1802      1035.32       668.82
 1803       1035.6       668.76
 1804      1035.89       669.08
 1805      1036.17        669.4
 1806      1036.45       669.68
 1807      1036.74       669.96
 1808      1037.02       670.12
 1809       1037.3       670.34
 1810      1037.59       670.82
 1811      1037.87       671.24
 1812      1038.15        671.8
 1813      1038.44       671.92
 1814      1038.72       671.24
 1815         1039       670.44
 1816      1039.28       669.98
 1817      1039.56          669
 1818      1039.85        668.5
 1819      1040.13       668.72
 1820      1040.41       669.36
 1821      1040.69        669.8
 1822      1040.97       670.38
 1823      1041.25       670.72
 1824      1041.54       670.38
 1825      1041.82        669.3
 1826       1042.1       668.38
 1827      1042.38       668.22
 1828      1042.66       668.34
 1829      1042.94       668.84
 1830      1043.22       669.58
 1831       1043.5       670.54
 1832      1043.78       671.12
 1833      1044.06       671.32
 1834      1044.34       671.66
 1835      1044.62        671.9
 1836       1044.9        671.5
 1837      1045.18       671.18
 1838      1045.46       671.36
 1839      1045.74        671.6
 1840      1046.02       671.96
 1841       1046.3        672.1
 1842      1046.58       671.52
 1843      1046.85        670.6
 1844      1047.13        669.7
 1845      1047.41        669.2
 1846      1047.69       669.22
 1847      1047.97       669.24
 1848      1048.25        668.7
 1849      1048.52       667.92
 1850       1048.8       667.24
 1851      1049.08       666.52
 1852      1049.36       666.18
 1853      1049.63        666.9
 1854      1049.91        667.7
 1855      1050.19       668.14
 1856      1050.47       668.94
 1857      1050.74       670.14
 1858      1051.02       670.86
 1859       1051.3       671.76
 1860      1051.57       672.86
 1861      1051.85       673.16
 1862      1052.13       672.88
 1863       1052.4       672.62
 1864      1052.68       672.12
 1865      1052.95       671.42
 1866      1053.23       671.18
 1867      1053.51       671.04
 1868      1053.78       671.22
 1869      1054.06       671.16
 1870      1054.33       670.68
 1871      1054.61       670.24
 1872      1054.88       669.98
 1873      1055.16        669.6
 1874      1055.43       669.82
 1875      1055.71       670.66
 1876      1055.98       671.34
 1877      1056.25       671.56
 1878      1056.53        671.8
 1879       1056.8       671.76
 1880      1057.08       671.14
 1881      1057.35       670.42
 1882      1057.62       670.16
 1883       1057.9       670.02
 1884      1058.17       669.84
 1885      1058.45       670.08
 1886      1058.72       670.48
 1887      1058.99       670.72
 1888      1059.26        670.7
 1889      1059.54       670.58
 1890      1059.81       669.88
 1891      1060.08       669.28
 1892      1060.35        669.2
 1893      1060.63       668.96
 1894       1060.9       668.56
 1895      1061.17       669.04
 1896      1061.44       669.44
 1897      1061.71       669.54
 1898      1061.99       670.18
 1899      1062.26       671.24
 1900      1062.53       671.94
 1901       1062.8       672.14
 1902      1063.07       672.34
 1903      1063.34       672.56
 1904      1063.61       672.82
 1905      1063.88       672.54
 1906      1064.15       672.02
 1907      1064.42       671.28
 1908       1064.7       670.12
 1909      1064.97       668.86
 1910      1065.24       668.54
 1911      1065.51       668.88
 1912      1065.78       668.98
 1913      1066.04       669.42
 1914      1066.31       669.56
 1915      1066.58       668.98
 1916      1066.85       668.54
 1917      1067.12       668.42
 1918      1067.39       667.92
 1919      1067.66       667.74
 1920      1067.93        668.2
 1921       1068.2       669.46
 1922      1068.47       670.88
 1923      1068.73       672.08
 1924         1069       672.86
 1925      1069.27        673.1
 1926      1069.54       672.16
 1927      1069.81       670.76
 1928      1070.07        669.8
 1929      1070.34        669.5
 1930      1070.61       669.22
 1931      1070.88       669.44
 1932      1071.14       670.16
 1933      1071.41       670.72
 1934      1071.68       671.18
 1935      1071.94       671.62
 1936      1072.21        671.1
 1937      1072.48       670.02
 1938      1072.74       668.88
 1939      1073.01          668
 1940      1073.28       668.04
 1941      1073.54        668.7
 1942      1073.81        669.8
 1943      1074.07       671.48
 1944      1074.34        672.7
 1945       1074.6       672.82
 1946      1074.87       672.66
 1947      1075.13       672.38
 1948       1075.4       671.46
 1949      1075.66       670.26
 1950      1075.93       669.34
 1951      1076.19       668.92
 1952      1076.46       668.46
 1953      1076.72       668.22
 1954      1076.99       668.16
 1955      1077.25       668.14
 1956      1077.52       667.82
 1957      1077.78       667.94
 1958      1078.04       668.28
 1959      1078.31       669.02
 1960      1078.57       669.96
 1961      1078.83       670.76
 1962       1079.1       671.18
 1963      1079.36       671.18
 1964      1079.62       671.06
 1965      1079.89       670.98
 1966      1080.15       670.94
 1967      1080.41       670.64
 1968      1080.67        670.1
 1969      1080.94       669.52
 1970       1081.2        669.1
 1971      1081.46       668.88
 1972      1081.72       668.68
 1973      1081.98       668.72
 1974      1082.24       668.96
 1975      1082.51       669.16
 1976      1082.77       669.44
 1977      1083.03       669.38
 1978      1083.29       669.22
 1979      1083.55       668.98
 1980      1083.81       668.66
 1981      1084.07       668.36
 1982      1084.33        668.7
 1983      1084.59       669.56
 1984      1084.85       670.16
 1985      1085.11       670.28
 1986      1085.37        670.1
 1987      1085.63       670.18
 1988      1085.89       670.12
 1989      1086.15        669.9
 1990      1086.41        669.8
 1991      1086.67       670.14
 1992      1086.93       670.28
 1993      1087.19       669.98
 1994      1087.45       669.72
 1995      1087.71       669.48
 1996      1087.97        668.9
 1997      1088.23       668.16
 1998      1088.48        667.6
 1999      1088.74       667.16
 2000         1089       667.42
 2001      1089.26       667.86
 2002      1089.52       668.38
 2003      1089.77       668.82
 2004      1090.03        668.8
 2005      1090.29       668.64
 2006      1090.55        668.8
 2007       1090.8       668.66
 2008      1091.06       668.72
 2009      1091.32       669.34
 2010      1091.57       669.48
 2011      1091.83       669.38
 2012      1092.09        669.7
 2013      1092.34          670
 2014       1092.6        670.1
 2015      1092.86       670.32
 2016      1093.11       670.26
 2017      1093.37       670.04
 2018      1093.62       669.98
 2019      1093.88       669.88
 2020      1094.13       669.58
 2021      1094.39       669.26
 2022      1094.65       668.94
 2023       1094.9        668.7
 2024      1095.16       668.86
 2025      1095.41       668.96
 2026      1095.66       669.22
 2027      1095.92       669.52
 2028      1096.17        669.6
 2029      1096.43       669.82
 2030      1096.68       670.54
 2031      1096.94        671.4
 2032      1097.19       672.08
 2033      1097.44        672.3
 2034       1097.7       671.84
 2035      1097.95       671.06
 2036       1098.2       670.34
 2037      1098.46       670.32
 2038      1098.71       670.84
 2039      1098.96       671.48
 2040      1099.22       672.02
 2041      1099.47       672.58
 2042      1099.72       672.48
 2043      1099.97       671.94
 2044      1100.23       671.68
 2045      1100.48       672.14
 2046      1100.73        671.9
 2047      1100.98        671.8
