scansci Spectrometer Data File
--- Measurement Setting ---
Type: Sample Spectrum
Date: Mon Oct 16 16:58:42 2023
User: (Reserved by scansci)
Serial: (Reserved by scansci)
Channel: No. 11
Integration Time: 1
Average: 10
Boxcar: 2
Electrical Dark: No-corrected
Time Normalize: (Reserved by scansci)
Dual-beam: (Reserved by scansci)
Reference Ch: (Reserved by scansci)
--- Measurement Data ---
Pixel   Wavelength   Intensity
    0        162.5      611.467
    1      162.985      610.725
    2      163.469       610.38
    3      163.954       609.52
    4      164.439        609.3
    5      164.923       609.28
    6      165.408        608.7
    7      165.892       608.16
    8      166.377       608.26
    9      166.861       607.98
   10      167.345       607.44
   11       167.83       607.54
   12      168.314       607.82
   13      168.798       607.74
   14      169.282        607.5
   15      169.766       607.78
   16       170.25       607.72
   17      170.734       606.64
   18      171.218       605.68
   19      171.702       605.46
   20      172.185       605.08
   21      172.669       604.96
   22      173.153       605.58
   23      173.636       605.78
   24       174.12       605.74
   25      174.603          606
   26      175.087       607.04
   27       175.57        608.5
   28      176.053       609.92
   29      176.537       610.82
   30       177.02       611.26
   31      177.503        611.1
   32      177.986       610.54
   33      178.469       609.76
   34      178.952       609.58
   35      179.435       609.88
   36      179.918       609.78
   37      180.401       609.52
   38      180.884        609.5
   39      181.366       609.14
   40      181.849       608.82
   41      182.332       608.76
   42      182.814       608.66
   43      183.297       608.38
   44      183.779       608.06
   45      184.262       607.88
   46      184.744       607.84
   47      185.226       607.82
   48      185.708       608.28
   49      186.191       609.04
   50      186.673       609.62
   51      187.155       610.14
   52      187.637       610.16
   53      188.119       609.54
   54        188.6          609
   55      189.082       608.82
   56      189.564        609.1
   57      190.046       609.62
   58      190.527        610.1
   59      191.009       610.34
   60      191.491          610
   61      191.972        608.9
   62      192.454       608.12
   63      192.935       607.84
   64      193.416       607.64
   65      193.897       607.76
   66      194.379        607.9
   67       194.86       607.84
   68      195.341       607.62
   69      195.822       607.44
   70      196.303       607.18
   71      196.784        607.4
   72      197.265       607.78
   73      197.746       608.12
   74      198.226       607.82
   75      198.707       607.42
   76      199.188       607.32
   77      199.668        607.4
   78      200.149       607.96
   79      200.629       608.96
   80       201.11       609.86
   81       201.59       610.12
   82       202.07       609.92
   83       202.55       609.18
   84      203.031       608.48
   85      203.511       608.18
   86      203.991       607.68
   87      204.471       607.42
   88      204.951       607.58
   89      205.431       608.38
   90       205.91       609.38
   91       206.39       610.38
   92       206.87       611.24
   93      207.349       611.86
   94      207.829        611.5
   95      208.309          610
   96      208.788       609.12
   97      209.267       608.46
   98      209.747        607.8
   99      210.226       607.86
  100      210.705       608.46
  101      211.185        608.6
  102      211.664       608.74
  103      212.143       608.88
  104      212.622       609.22
  105      213.101       609.44
  106      213.579       609.24
  107      214.058        609.2
  108      214.537        609.4
  109      215.016       609.18
  110      215.494       609.24
  111      215.973       609.22
  112      216.452       608.74
  113       216.93        608.4
  114      217.408       608.24
  115      217.887       608.06
  116      218.365        608.5
  117      218.843       608.96
  118      219.321       608.84
  119      219.799       608.34
  120      220.278       607.44
  121      220.755       606.36
  122      221.233       606.22
  123      221.711       606.88
  124      222.189       607.52
  125      222.667       607.84
  126      223.144       608.62
  127      223.622       609.22
  128        224.1       609.08
  129      224.577       608.98
  130      225.055       609.56
  131      225.532       610.02
  132      226.009       610.02
  133      226.486        609.8
  134      226.964       609.48
  135      227.441       608.88
  136      227.918       608.02
  137      228.395       607.46
  138      228.872       607.36
  139      229.349       607.54
  140      229.826       607.92
  141      230.302       608.62
  142      230.779       609.24
  143      231.256       609.78
  144      231.732        609.9
  145      232.209       609.46
  146      232.685       608.86
  147      233.162        608.3
  148      233.638          608
  149      234.114       608.26
  150       234.59       608.92
  151      235.066       609.52
  152      235.543          610
  153      236.019       610.26
  154      236.495        610.2
  155       236.97       609.88
  156      237.446       608.98
  157      237.922       607.54
  158      238.398        606.1
  159      238.873        605.2
  160      239.349       604.46
  161      239.824       604.56
  162        240.3       605.04
  163      240.775       605.28
  164      241.251       604.66
  165      241.726       604.22
  166      242.201       603.84
  167      242.676       603.52
  168      243.151       603.68
  169      243.626       604.36
  170      244.101        604.8
  171      244.576       605.02
  172      245.051       605.58
  173      245.526       605.88
  174          246       605.72
  175      246.475       605.86
  176       246.95       605.92
  177      247.424        605.4
  178      247.899       604.94
  179      248.373        604.9
  180      248.847       605.02
  181      249.321       605.12
  182      249.796       605.58
  183       250.27          606
  184      250.744       606.24
  185      251.218        606.2
  186      251.692       606.34
  187      252.166       606.46
  188      252.639       606.36
  189      253.113       606.58
  190      253.587        607.2
  191       254.06       607.88
  192      254.534       608.56
  193      255.007        609.6
  194      255.481       610.24
  195      255.954       610.14
  196      256.427       609.68
  197      256.901       609.04
  198      257.374        608.2
  199      257.847       607.76
  200       258.32        607.8
  201      258.793       607.74
  202      259.266       607.78
  203      259.739       607.48
  204      260.211        606.8
  205      260.684        606.3
  206      261.157       606.28
  207      261.629       605.78
  208      262.102       605.48
  209      262.574       605.92
  210      263.046        606.7
  211      263.519       607.14
  212      263.991       608.16
  213      264.463        609.2
  214      264.935       609.36
  215      265.407        609.1
  216      265.879       608.84
  217      266.351       608.46
  218      266.823       608.06
  219      267.295       608.12
  220      267.766       608.38
  221      268.238       608.64
  222       268.71        608.8
  223      269.181       609.14
  224      269.653       609.18
  225      270.124       609.16
  226      270.595        609.2
  227      271.066       608.74
  228      271.538       608.14
  229      272.009       607.92
  230       272.48       607.36
  231      272.951       606.72
  232      273.422       606.82
  233      273.892       607.04
  234      274.363          607
  235      274.834        606.7
  236      275.305       606.34
  237      275.775       606.08
  238      276.246       606.16
  239      276.716        606.2
  240      277.186       606.68
  241      277.657       607.86
  242      278.127       609.22
  243      278.597       610.04
  244      279.067       610.28
  245      279.537        609.9
  246      280.007       609.22
  247      280.477        608.2
  248      280.947        607.2
  249      281.417       606.76
  250      281.886       606.68
  251      282.356       606.56
  252      282.825       606.64
  253      283.295       606.92
  254      283.764       607.08
  255      284.234       607.24
  256      284.703       607.36
  257      285.172       606.84
  258      285.641       605.56
  259       286.11       604.48
  260      286.579       604.12
  261      287.048        603.9
  262      287.517       604.38
  263      287.986       605.46
  264      288.454       606.44
  265      288.923        606.8
  266      289.392       606.96
  267       289.86       606.82
  268      290.329       606.88
  269      290.797        606.9
  270      291.265        606.6
  271      291.734       606.42
  272      292.202       606.56
  273       292.67        606.9
  274      293.138       607.76
  275      293.606        609.2
  276      294.074       610.04
  277      294.541          611
  278      295.009       611.44
  279      295.477       610.74
  280      295.944       609.82
  281      296.412       609.34
  282      296.879       608.08
  283      297.347       606.82
  284      297.814       606.22
  285      298.281       605.56
  286      298.749       604.98
  287      299.216          605
  288      299.683        605.2
  289       300.15       605.46
  290      300.616        605.8
  291      301.083       606.24
  292       301.55       607.04
  293      302.017       607.84
  294      302.483       608.12
  295       302.95       608.24
  296      303.416       608.28
  297      303.883       607.56
  298      304.349       606.74
  299      304.815        606.5
  300      305.281        606.7
  301      305.748       606.82
  302      306.214       606.72
  303       306.68       606.86
  304      307.146       607.04
  305      307.611       606.92
  306      308.077       607.36
  307      308.543       607.74
  308      309.008       607.64
  309      309.474       607.56
  310      309.939       607.72
  311      310.405       607.34
  312       310.87       606.98
  313      311.335       606.96
  314        311.8       607.36
  315      312.266       607.64
  316      312.731        607.7
  317      313.196       607.98
  318       313.66        607.8
  319      314.125       606.92
  320       314.59       606.32
  321      315.055       606.24
  322      315.519       606.28
  323      315.984       607.08
  324      316.448       608.32
  325      316.913       609.12
  326      317.377        609.7
  327      317.841       610.48
  328      318.305       610.36
  329      318.769       609.38
  330      319.233        608.5
  331      319.697       608.12
  332      320.161       607.66
  333      320.625        607.4
  334      321.089        607.3
  335      321.552       607.58
  336      322.016       607.74
  337      322.479       607.64
  338      322.943       608.12
  339      323.406       609.28
  340      323.869       609.74
  341      324.333       609.48
  342      324.796       609.48
  343      325.259       609.34
  344      325.722       608.84
  345      326.185       608.98
  346      326.647       609.18
  347       327.11       608.94
  348      327.573       608.74
  349      328.035        608.8
  350      328.498        608.8
  351       328.96       608.98
  352      329.423       609.22
  353      329.885       609.24
  354      330.347        608.9
  355       330.81       608.54
  356      331.272       608.42
  357      331.734        608.1
  358      332.196        607.8
  359      332.657       607.78
  360      333.119       607.58
  361      333.581       607.26
  362      334.043       607.42
  363      334.504       608.08
  364      334.966       608.46
  365      335.427       608.32
  366      335.888       608.14
  367       336.35       608.44
  368      336.811        608.5
  369      337.272       608.38
  370      337.733       608.24
  371      338.194       608.14
  372      338.655       607.86
  373      339.115       607.72
  374      339.576       608.54
  375      340.037       609.82
  376      340.497       610.08
  377      340.958       609.76
  378      341.418       609.62
  379      341.879       609.24
  380      342.339        609.6
  381      342.799       611.04
  382      343.259       611.92
  383      343.719       611.74
  384      344.179          611
  385      344.639       609.68
  386      345.099       608.14
  387      345.559       607.38
  388      346.018       607.14
  389      346.478        607.2
  390      346.937        607.2
  391      347.397        607.4
  392      347.856          608
  393      348.315       608.92
  394      348.774       609.72
  395      349.234       610.24
  396      349.693        610.4
  397      350.152       610.16
  398       350.61        609.9
  399      351.069       609.52
  400      351.528       609.32
  401      351.987       609.66
  402      352.445       610.06
  403      352.904       610.66
  404      353.362       611.56
  405       353.82       612.36
  406      354.279       612.62
  407      354.737       612.48
  408      355.195        611.4
  409      355.653       610.04
  410      356.111        608.8
  411      356.569       607.64
  412      357.027       606.74
  413      357.484       606.34
  414      357.942       605.96
  415      358.399       605.72
  416      358.857       605.92
  417      359.314       606.36
  418      359.772       607.28
  419      360.229        608.5
  420      360.686       608.96
  421      361.143       608.94
  422        361.6       609.24
  423      362.057       609.14
  424      362.514       608.64
  425      362.971       608.46
  426      363.427       608.52
  427      363.884       608.08
  428       364.34       607.46
  429      364.797       606.86
  430      365.253       606.88
  431      365.709       607.28
  432      366.166       607.72
  433      366.622          608
  434      367.078       608.04
  435      367.534       608.28
  436       367.99       608.46
  437      368.445       608.52
  438      368.901       608.92
  439      369.357       609.58
  440      369.812       609.72
  441      370.268        609.4
  442      370.723       609.28
  443      371.179        609.3
  444      371.634       609.38
  445      372.089       609.12
  446      372.544       609.06
  447      372.999       609.04
  448      373.454       608.94
  449      373.909        609.2
  450      374.364       610.04
  451      374.818       610.54
  452      375.273        610.4
  453      375.727        609.8
  454      376.182        608.7
  455      376.636       607.98
  456       377.09       607.76
  457      377.545       608.04
  458      377.999       609.04
  459      378.453       609.44
  460      378.907       608.52
  461      379.361       607.14
  462      379.814       606.06
  463      380.268       604.94
  464      380.722       604.82
  465      381.175       605.56
  466      381.629       606.38
  467      382.082        607.1
  468      382.535       607.66
  469      382.989       608.16
  470      383.442        608.5
  471      383.895       608.96
  472      384.348        608.8
  473      384.801        607.9
  474      385.253       606.72
  475      385.706        605.7
  476      386.159       605.04
  477      386.611       605.18
  478      387.064       605.94
  479      387.516       606.48
  480      387.968       606.68
  481      388.421       606.52
  482      388.873       605.96
  483      389.325       605.42
  484      389.777       605.52
  485      390.229       606.12
  486      390.681       606.74
  487      391.132        607.5
  488      391.584       607.98
  489      392.035       607.88
  490      392.487       607.54
  491      392.938       607.52
  492       393.39       607.62
  493      393.841       608.44
  494      394.292       609.86
  495      394.743       610.68
  496      395.194       610.58
  497      395.645       610.28
  498      396.096       608.96
  499      396.546       606.76
  500      396.997        604.9
  501      397.448       604.44
  502      397.898        604.3
  503      398.349       604.58
  504      398.799        605.6
  505      399.249        607.2
  506      399.699        608.2
  507      400.149       608.84
  508      400.599       609.32
  509      401.049       609.84
  510      401.499       610.18
  511      401.949        609.8
  512      402.398       609.02
  513      402.848       608.68
  514      403.297       608.14
  515      403.747       607.66
  516      404.196        607.5
  517      404.645       607.52
  518      405.094       607.66
  519      405.543        607.7
  520      405.992       606.98
  521      406.441       606.36
  522       406.89       605.94
  523      407.339       605.28
  524      407.787        605.1
  525      408.236       605.54
  526      408.684       606.14
  527      409.132        607.1
  528      409.581       607.68
  529      410.029        607.4
  530      410.477       606.82
  531      410.925       606.16
  532      411.373       605.16
  533      411.821       605.62
  534      412.269       607.68
  535      412.716       609.76
  536      413.164       610.82
  537      413.611       611.42
  538      414.059       610.58
  539      414.506       608.06
  540      414.953        605.5
  541        415.4        604.7
  542      415.847       604.64
  543      416.294       604.48
  544      416.741          605
  545      417.188       606.02
  546      417.635       606.18
  547      418.081       605.94
  548      418.528       606.38
  549      418.974       606.74
  550      419.421       606.62
  551      419.867       606.76
  552      420.313        607.2
  553      420.759       606.92
  554      421.205       606.22
  555      421.651       605.52
  556      422.097       604.76
  557      422.543        604.1
  558      422.989        603.8
  559      423.434       604.24
  560       423.88       605.38
  561      424.325       606.46
  562       424.77       607.32
  563      425.216       607.84
  564      425.661       607.84
  565      426.106       607.08
  566      426.551       606.24
  567      426.996       605.48
  568       427.44       605.22
  569      427.885       605.58
  570       428.33       606.36
  571      428.774        607.4
  572      429.219        608.4
  573      429.663       608.82
  574      430.107        608.5
  575      430.551       607.44
  576      430.996       606.22
  577       431.44        605.6
  578      431.883        605.8
  579      432.327       606.42
  580      432.771       607.42
  581      433.215        608.4
  582      433.658       608.74
  583      434.102       608.88
  584      434.545       608.72
  585      434.988       608.58
  586      435.431        608.7
  587      435.875       608.64
  588      436.318       607.66
  589      436.761        606.5
  590      437.203       606.14
  591      437.646       605.74
  592      438.089       605.58
  593      438.531       606.38
  594      438.974       607.28
  595      439.416       607.38
  596      439.859       607.26
  597      440.301       607.36
  598      440.743       607.32
  599      441.185        607.3
  600      441.627       607.16
  601      442.069       607.18
  602       442.51       607.38
  603      442.952       607.52
  604      443.394       607.84
  605      443.835       608.58
  606      444.277       608.82
  607      444.718       608.34
  608      445.159       608.12
  609        445.6       607.84
  610      446.041        607.4
  611      446.482       607.26
  612      446.923        607.2
  613      447.364          607
  614      447.804       607.04
  615      448.245       606.86
  616      448.685       606.64
  617      449.126       606.62
  618      449.566       606.94
  619      450.006       607.18
  620      450.447       607.64
  621      450.887       608.36
  622      451.326       609.06
  623      451.766       608.94
  624      452.206       608.48
  625      452.646       607.98
  626      453.085        607.7
  627      453.525       607.76
  628      453.964       608.06
  629      454.403       608.44
  630      454.843        608.7
  631      455.282       608.72
  632      455.721       608.78
  633       456.16       608.86
  634      456.599       607.88
  635      457.037       606.56
  636      457.476       605.46
  637      457.915        603.9
  638      458.353       602.52
  639      458.791       602.92
  640       459.23       604.08
  641      459.668       604.78
  642      460.106       605.84
  643      460.544       607.48
  644      460.982        608.8
  645       461.42       609.22
  646      461.857       609.26
  647      462.295       608.42
  648      462.733       606.94
  649       463.17       605.72
  650      463.607       605.26
  651      464.045        605.2
  652      464.482       605.82
  653      464.919       606.56
  654      465.356        606.7
  655      465.793       606.62
  656       466.23        606.9
  657      466.666       607.32
  658      467.103        607.4
  659      467.539       607.16
  660      467.976       607.28
  661      468.412       607.28
  662      468.848       607.02
  663      469.284       607.76
  664       469.72        608.9
  665      470.156       609.32
  666      470.592       609.64
  667      471.028       610.04
  668      471.464       609.44
  669      471.899       608.94
  670      472.335       608.64
  671       472.77       608.14
  672      473.205       607.28
  673      473.641        606.4
  674      474.076       605.44
  675      474.511       604.66
  676      474.946       604.58
  677       475.38       605.48
  678      475.815        606.5
  679       476.25       607.52
  680      476.684       608.62
  681      477.119       608.78
  682      477.553       608.26
  683      477.987       608.16
  684      478.421       608.24
  685      478.856        608.1
  686      479.289       607.84
  687      479.723       607.54
  688      480.157       607.68
  689      480.591       608.52
  690      481.024       609.36
  691      481.458       610.26
  692      481.891       610.64
  693      482.324       609.82
  694      482.758       608.36
  695      483.191       607.12
  696      483.624       606.36
  697      484.057       606.22
  698      484.489       606.44
  699      484.922       606.42
  700      485.355        606.4
  701      485.787       606.84
  702       486.22       607.52
  703      486.652       608.48
  704      487.084       609.52
  705      487.516        610.4
  706      487.948       610.46
  707       488.38       610.66
  708      488.812       610.92
  709      489.244       610.78
  710      489.676       610.02
  711      490.107        609.2
  712      490.539       608.04
  713       490.97        606.6
  714      491.401       605.78
  715      491.832       606.12
  716      492.263        606.8
  717      492.694       607.32
  718      493.125       608.36
  719      493.556       609.14
  720      493.987       609.02
  721      494.417       608.78
  722      494.848        608.6
  723      495.278       608.02
  724      495.708       607.34
  725      496.139       607.08
  726      496.569       607.12
  727      496.999       607.42
  728      497.429        607.5
  729      497.858       607.54
  730      498.288       607.82
  731      498.718       607.78
  732      499.147       606.94
  733      499.577       606.62
  734      500.006       606.52
  735      500.435       606.08
  736      500.864       605.94
  737      501.293       606.32
  738      501.722       605.98
  739      502.151        605.7
  740       502.58        605.9
  741      503.008        606.1
  742      503.437       606.28
  743      503.865        607.2
  744      504.293        608.2
  745      504.722       608.66
  746       505.15       608.98
  747      505.578       609.04
  748      506.006       608.16
  749      506.434       607.14
  750      506.861       606.62
  751      507.289       606.26
  752      507.716       606.48
  753      508.144        607.4
  754      508.571        607.8
  755      508.998       607.44
  756      509.425        607.2
  757      509.852       606.94
  758      510.279       606.38
  759      510.706        606.3
  760      511.133       606.64
  761       511.56       606.58
  762      511.986       606.06
  763      512.412       605.26
  764      512.839       604.42
  765      513.265       604.04
  766      513.691       603.74
  767      514.117       603.38
  768      514.543       603.42
  769      514.969        603.9
  770      515.395       604.42
  771       515.82       604.92
  772      516.246       605.52
  773      516.671       606.08
  774      517.096       606.66
  775      517.522       607.02
  776      517.947       607.36
  777      518.372       608.06
  778      518.797       608.66
  779      519.222       608.76
  780      519.646       608.78
  781      520.071       608.82
  782      520.495       608.44
  783       520.92        608.2
  784      521.344       607.92
  785      521.768        607.7
  786      522.192       607.88
  787      522.616       608.04
  788       523.04       607.74
  789      523.464       607.84
  790      523.888       608.08
  791      524.311       608.18
  792      524.735       608.54
  793      525.158       609.26
  794      525.581       609.84
  795      526.005       610.52
  796      526.428       611.06
  797      526.851        611.4
  798      527.274       611.56
  799      527.696        611.2
  800      528.119       610.54
  801      528.542       609.78
  802      528.964       609.28
  803      529.386       609.24
  804      529.809       609.82
  805      530.231        609.9
  806      530.653        609.7
  807      531.075       608.96
  808      531.497       607.94
  809      531.918       606.76
  810       532.34       605.82
  811      532.761       605.36
  812      533.183        605.5
  813      533.604       605.48
  814      534.025        605.3
  815      534.447       605.74
  816      534.868       606.58
  817      535.289       607.08
  818      535.709       607.74
  819       536.13       608.08
  820      536.551        607.4
  821      536.971        606.2
  822      537.392        605.5
  823      537.812       605.12
  824      538.232       605.38
  825      538.652       606.12
  826      539.072       606.22
  827      539.492       605.86
  828      539.912       605.22
  829      540.331       604.44
  830      540.751       604.08
  831       541.17          604
  832       541.59        603.9
  833      542.009       604.06
  834      542.428       604.38
  835      542.847        604.5
  836      543.266        604.9
  837      543.685       605.76
  838      544.104       606.78
  839      544.522        607.8
  840      544.941       609.04
  841      545.359       610.06
  842      545.778       611.06
  843      546.196       611.74
  844      546.614        611.6
  845      547.032       610.96
  846       547.45        610.8
  847      547.867        610.6
  848      548.285       610.22
  849      548.703       609.94
  850       549.12       609.42
  851      549.538        608.7
  852      549.955       607.68
  853      550.372       607.14
  854      550.789       606.94
  855      551.206       607.04
  856      551.623       607.24
  857      552.039       607.42
  858      552.456       607.46
  859      552.873       607.72
  860      553.289       607.66
  861      553.705       607.48
  862      554.121       607.92
  863      554.537       608.02
  864      554.953       607.54
  865      555.369        607.4
  866      555.785        607.3
  867      556.201       606.72
  868      556.616        606.2
  869      557.032       606.28
  870      557.447        606.5
  871      557.862       606.76
  872      558.277          607
  873      558.692       607.24
  874      559.107       607.64
  875      559.522       607.66
  876      559.937       607.18
  877      560.351        606.7
  878      560.766       606.38
  879       561.18          606
  880      561.595       606.24
  881      562.009       606.86
  882      562.423       607.46
  883      562.837       607.74
  884       563.25        607.9
  885      563.664       608.02
  886      564.078        608.2
  887      564.491        608.4
  888      564.905       608.66
  889      565.318       608.34
  890      565.731       607.82
  891      566.144       607.72
  892      566.557       607.46
  893       566.97       607.56
  894      567.383       608.38
  895      567.795          609
  896      568.208       608.68
  897       568.62       608.88
  898      569.033       609.28
  899      569.445        609.3
  900      569.857        609.2
  901      570.269        609.5
  902      570.681       609.64
  903      571.093       609.26
  904      571.504       608.72
  905      571.916       608.26
  906      572.327       608.04
  907      572.739       608.12
  908       573.15       607.94
  909      573.561        607.5
  910      573.972        607.1
  911      574.383       606.44
  912      574.794        605.4
  913      575.204       605.16
  914      575.615       606.06
  915      576.025       607.14
  916      576.436       607.64
  917      576.846       607.88
  918      577.256       607.66
  919      577.666       606.62
  920      578.076        605.7
  921      578.486        605.8
  922      578.896       606.34
  923      579.305       607.22
  924      579.715          608
  925      580.124        608.4
  926      580.533       608.42
  927      580.942        608.1
  928      581.351       607.46
  929       581.76       606.94
  930      582.169       606.62
  931      582.578       606.26
  932      582.986       606.22
  933      583.395       606.38
  934      583.803       606.82
  935      584.212        607.6
  936       584.62       608.52
  937      585.028       608.96
  938      585.436       608.94
  939      585.843       609.18
  940      586.251        609.1
  941      586.659        608.8
  942      587.066       608.36
  943      587.474       608.02
  944      587.881       607.44
  945      588.288       607.26
  946      588.695        607.1
  947      589.102       607.34
  948      589.509        608.1
  949      589.915       608.24
  950      590.322       607.44
  951      590.728       607.02
  952      591.135       607.58
  953      591.541       608.02
  954      591.947       608.44
  955      592.353       609.36
  956      592.759       609.86
  957      593.165       609.22
  958      593.571        608.6
  959      593.976       608.32
  960      594.382       608.06
  961      594.787       608.44
  962      595.192       609.24
  963      595.597       609.74
  964      596.002       610.06
  965      596.407       609.98
  966      596.812       609.34
  967      597.217        608.6
  968      597.621        608.2
  969      598.026       607.72
  970       598.43       607.46
  971      598.834       607.48
  972      599.238       607.42
  973      599.642       607.26
  974      600.046        607.8
  975       600.45       609.06
  976      600.854        609.7
  977      601.257       609.78
  978      601.661        609.8
  979      602.064       609.42
  980      602.467       608.32
  981       602.87       607.68
  982      603.273       607.38
  983      603.676       607.34
  984      604.079       607.58
  985      604.481       607.66
  986      604.884       607.38
  987      605.286       607.62
  988      605.689        607.4
  989      606.091       606.82
  990      606.493          607
  991      606.895        607.1
  992      607.297       606.28
  993      607.698       605.94
  994        608.1       606.08
  995      608.501       605.86
  996      608.903       606.66
  997      609.304       607.88
  998      609.705       608.32
  999      610.106       608.64
 1000      610.507       608.88
 1001      610.908       608.36
 1002      611.308       607.88
 1003      611.709       607.82
 1004      612.109       607.52
 1005       612.51       607.24
 1006       612.91       607.42
 1007       613.31        607.4
 1008       613.71       606.76
 1009       614.11       606.42
 1010       614.51       606.48
 1011      614.909       606.12
 1012      615.309       605.88
 1013      615.708       606.64
 1014      616.108       607.82
 1015      616.507       608.84
 1016      616.906       609.74
 1017      617.305       610.66
 1018      617.704       610.92
 1019      618.102       610.64
 1020      618.501       610.06
 1021      618.899       609.68
 1022      619.298       609.82
 1023      619.696       610.42
 1024      620.094       610.58
 1025      620.492       610.44
 1026       620.89       610.34
 1027      621.288          610
 1028      621.686       609.34
 1029      622.083       608.92
 1030       622.48       608.74
 1031      622.878       608.64
 1032      623.275       608.58
 1033      623.672        608.9
 1034      624.069       609.42
 1035      624.466       609.58
 1036      624.863        609.4
 1037      625.259       608.82
 1038      625.656       608.24
 1039      626.052        607.8
 1040      626.448       607.76
 1041      626.844       607.86
 1042      627.241       608.24
 1043      627.636          608
 1044      628.032       607.18
 1045      628.428       606.48
 1046      628.823       605.94
 1047      629.219       604.68
 1048      629.614       603.52
 1049      630.009       602.96
 1050      630.404       602.44
 1051      630.799       602.24
 1052      631.194       603.02
 1053      631.589       604.56
 1054      631.984       606.28
 1055      632.378       607.98
 1056      632.772       609.12
 1057      633.167       610.18
 1058      633.561        610.5
 1059      633.955       610.34
 1060      634.349       610.32
 1061      634.743       610.42
 1062      635.136       610.36
 1063       635.53       610.28
 1064      635.923        609.8
 1065      636.316        608.7
 1066       636.71       607.56
 1067      637.103       606.36
 1068      637.496       605.66
 1069      637.888       605.92
 1070      638.281       607.32
 1071      638.674       608.36
 1072      639.066        608.9
 1073      639.459       609.44
 1074      639.851       609.16
 1075      640.243       608.04
 1076      640.635       607.94
 1077      641.027       608.58
 1078      641.419       608.84
 1079       641.81        609.4
 1080      642.202       609.68
 1081      642.593       608.94
 1082      642.984       608.16
 1083      643.375       607.84
 1084      643.766       607.64
 1085      644.157       607.78
 1086      644.548       608.24
 1087      644.939        608.5
 1088      645.329       607.98
 1089       645.72       606.98
 1090       646.11        606.2
 1091        646.5       605.66
 1092       646.89        604.7
 1093       647.28          604
 1094       647.67       603.46
 1095       648.06       603.36
 1096      648.449       603.82
 1097      648.839       604.64
 1098      649.228       605.34
 1099      649.617        605.8
 1100      650.007       605.78
 1101      650.396        605.7
 1102      650.784       605.48
 1103      651.173       605.64
 1104      651.562       606.62
 1105       651.95        607.5
 1106      652.339       607.64
 1107      652.727       607.34
 1108      653.115       606.92
 1109      653.503       606.26
 1110      653.891        605.6
 1111      654.279       605.14
 1112      654.666       605.46
 1113      655.054       605.92
 1114      655.441       606.22
 1115      655.828       605.96
 1116      656.216        605.4
 1117      656.603       605.08
 1118      656.989       605.04
 1119      657.376       605.14
 1120      657.763       605.66
 1121      658.149       606.76
 1122      658.536       607.92
 1123      658.922       608.62
 1124      659.308       608.94
 1125      659.694       609.04
 1126       660.08        608.9
 1127      660.466       608.08
 1128      660.852       607.48
 1129      661.237       607.14
 1130      661.623        607.3
 1131      662.008        607.7
 1132      662.393       608.42
 1133      662.778       609.22
 1134      663.163       609.36
 1135      663.548       609.08
 1136      663.933       608.74
 1137      664.317       608.48
 1138      664.702          608
 1139      665.086        607.9
 1140       665.47       608.26
 1141      665.854       608.22
 1142      666.238       607.92
 1143      666.622       607.74
 1144      667.006       607.78
 1145      667.389       607.42
 1146      667.773       606.76
 1147      668.156       605.98
 1148      668.539        605.6
 1149      668.923       605.42
 1150      669.305       605.02
 1151      669.688       605.24
 1152      670.071       605.72
 1153      670.454       606.08
 1154      670.836       606.66
 1155      671.218        607.2
 1156      671.601       607.44
 1157      671.983       607.82
 1158      672.365          608
 1159      672.747       607.92
 1160      673.128       607.98
 1161       673.51       608.46
 1162      673.891       608.84
 1163      674.273       608.36
 1164      674.654        607.3
 1165      675.035       606.52
 1166      675.416       605.78
 1167      675.797        605.1
 1168      676.177       605.22
 1169      676.558       606.22
 1170      676.938       607.52
 1171      677.319       608.76
 1172      677.699       609.68
 1173      678.079        610.3
 1174      678.459       610.78
 1175      678.839       610.68
 1176      679.219        610.2
 1177      679.598          610
 1178      679.978       609.96
 1179      680.357       609.36
 1180      680.736       609.02
 1181      681.115        608.7
 1182      681.494       608.04
 1183      681.873       607.24
 1184      682.252       606.36
 1185       682.63        605.5
 1186      683.009       605.06
 1187      683.387       604.94
 1188      683.765       605.24
 1189      684.143       606.08
 1190      684.521       606.94
 1191      684.899       607.08
 1192      685.277       607.22
 1193      685.654       607.74
 1194      686.032       608.16
 1195      686.409       607.96
 1196      686.786       607.86
 1197      687.163       607.32
 1198       687.54       606.22
 1199      687.917       605.66
 1200      688.294       605.64
 1201       688.67       605.44
 1202      689.046        605.5
 1203      689.423       605.58
 1204      689.799       605.36
 1205      690.175       605.56
 1206      690.551       606.86
 1207      690.927       608.58
 1208      691.302       610.14
 1209      691.678       611.48
 1210      692.053       611.96
 1211      692.428       611.52
 1212      692.804       610.72
 1213      693.179          610
 1214      693.553       609.56
 1215      693.928       609.96
 1216      694.303        610.1
 1217      694.677       609.74
 1218      695.052        609.5
 1219      695.426       609.12
 1220        695.8        608.5
 1221      696.174       608.16
 1222      696.548       607.84
 1223      696.921       607.04
 1224      697.295       606.36
 1225      697.669       605.78
 1226      698.042        605.4
 1227      698.415       605.68
 1228      698.788       606.88
 1229      699.161        608.1
 1230      699.534       608.72
 1231      699.907        609.1
 1232      700.279       609.06
 1233      700.652       608.12
 1234      701.024       606.46
 1235      701.396        605.6
 1236      701.768       605.48
 1237       702.14       605.54
 1238      702.512       606.04
 1239      702.883       606.46
 1240      703.255        606.1
 1241      703.626       605.34
 1242      703.998       604.76
 1243      704.369       604.26
 1244       704.74       604.22
 1245      705.111       604.98
 1246      705.481       605.96
 1247      705.852       606.82
 1248      706.222       607.66
 1249      706.593       608.86
 1250      706.963        609.5
 1251      707.333       609.56
 1252      707.703       609.58
 1253      708.073       609.06
 1254      708.442          608
 1255      708.812       607.22
 1256      709.181       606.88
 1257      709.551       606.52
 1258       709.92       606.44
 1259      710.289       606.54
 1260      710.658       606.36
 1261      711.027        606.1
 1262      711.395       605.62
 1263      711.764        605.2
 1264      712.132       604.84
 1265        712.5       604.56
 1266      712.869       604.56
 1267      713.236       605.32
 1268      713.604       606.28
 1269      713.972        606.8
 1270       714.34       607.06
 1271      714.707       607.26
 1272      715.074        607.1
 1273      715.442       606.18
 1274      715.809       605.22
 1275      716.176       604.62
 1276      716.542        604.2
 1277      716.909       603.74
 1278      717.276        603.9
 1279      717.642        604.9
 1280      718.008       606.28
 1281      718.374       607.24
 1282       718.74        607.7
 1283      719.106       608.02
 1284      719.472       608.22
 1285      719.838       607.78
 1286      720.203       607.26
 1287      720.568       607.32
 1288      720.934       607.88
 1289      721.299        608.2
 1290      721.664       608.38
 1291      722.029       608.68
 1292      722.393        608.5
 1293      722.758       608.02
 1294      723.122       607.56
 1295      723.486        606.8
 1296      723.851        606.1
 1297      724.215       606.38
 1298      724.578       606.86
 1299      724.942        607.1
 1300      725.306       607.92
 1301      725.669        608.9
 1302      726.033       609.12
 1303      726.396       608.76
 1304      726.759       608.36
 1305      727.122       608.38
 1306      727.485       608.56
 1307      727.847       609.14
 1308       728.21       609.76
 1309      728.572       610.22
 1310      728.935       610.66
 1311      729.297       610.62
 1312      729.659       610.08
 1313      730.021       609.64
 1314      730.382       609.22
 1315      730.744       608.28
 1316      731.105       607.22
 1317      731.467       606.16
 1318      731.828       605.38
 1319      732.189       605.38
 1320       732.55       605.94
 1321      732.911       606.72
 1322      733.271       608.02
 1323      733.632       609.28
 1324      733.992       609.82
 1325      734.352        609.7
 1326      734.713       609.56
 1327      735.072        609.3
 1328      735.432       609.18
 1329      735.792       609.02
 1330      736.152       609.12
 1331      736.511       609.16
 1332       736.87       609.04
 1333      737.229       608.58
 1334      737.589       608.48
 1335      737.947       608.16
 1336      738.306        607.6
 1337      738.665       607.56
 1338      739.023       607.82
 1339      739.382       608.34
 1340       739.74       608.92
 1341      740.098       609.62
 1342      740.456       609.62
 1343      740.814       609.14
 1344      741.171       608.68
 1345      741.529        608.6
 1346      741.886       608.66
 1347      742.244       608.18
 1348      742.601        607.7
 1349      742.958       607.34
 1350      743.314       606.82
 1351      743.671       605.98
 1352      744.028       605.86
 1353      744.384       606.04
 1354       744.74          606
 1355      745.097       606.24
 1356      745.453       606.58
 1357      745.809        606.5
 1358      746.164        606.1
 1359       746.52       605.44
 1360      746.875       604.96
 1361      747.231        605.2
 1362      747.586        605.6
 1363      747.941       606.18
 1364      748.296       607.04
 1365      748.651       607.64
 1366      749.005       607.62
 1367       749.36       607.94
 1368      749.714       608.52
 1369      750.069       608.84
 1370      750.423       608.84
 1371      750.777       608.82
 1372       751.13       608.76
 1373      751.484        608.7
 1374      751.838       608.64
 1375      752.191       608.74
 1376      752.544       608.68
 1377      752.897       608.12
 1378       753.25       607.36
 1379      753.603       606.94
 1380      753.956       606.88
 1381      754.309       606.96
 1382      754.661       607.36
 1383      755.013        607.8
 1384      755.365       608.12
 1385      755.717       608.08
 1386      756.069       608.36
 1387      756.421        608.7
 1388      756.773       608.94
 1389      757.124          609
 1390      757.476       609.06
 1391      757.827       608.64
 1392      758.178        608.1
 1393      758.529       607.46
 1394      758.879       607.02
 1395       759.23        606.8
 1396      759.581       606.96
 1397      759.931       607.36
 1398      760.281       607.52
 1399      760.631       606.98
 1400      760.981       606.26
 1401      761.331        605.7
 1402      761.681        605.3
 1403       762.03       605.22
 1404      762.379        605.4
 1405      762.729       605.56
 1406      763.078        605.7
 1407      763.427       605.94
 1408      763.776       606.34
 1409      764.124       606.58
 1410      764.473        606.7
 1411      764.821       606.72
 1412      765.169        606.7
 1413      765.517          607
 1414      765.865        607.8
 1415      766.213       608.54
 1416      766.561        608.7
 1417      766.909       607.88
 1418      767.256       606.48
 1419      767.603        605.6
 1420       767.95       605.16
 1421      768.297       604.96
 1422      768.644        605.6
 1423      768.991       606.84
 1424      769.337       607.82
 1425      769.684       608.38
 1426       770.03        609.1
 1427      770.376       609.24
 1428      770.722       608.82
 1429      771.068       608.44
 1430      771.414       608.12
 1431      771.759       607.76
 1432      772.105        607.7
 1433       772.45        607.7
 1434      772.795       606.96
 1435       773.14       606.36
 1436      773.485       606.12
 1437       773.83       605.82
 1438      774.174       605.74
 1439      774.519        606.5
 1440      774.863       607.34
 1441      775.207        607.6
 1442      775.551       607.68
 1443      775.895       607.98
 1444      776.239       608.22
 1445      776.582        607.8
 1446      776.926       607.38
 1447      777.269       607.12
 1448      777.612       606.56
 1449      777.955       605.72
 1450      778.298       605.68
 1451      778.641          606
 1452      778.983       606.26
 1453      779.326       606.42
 1454      779.668       606.34
 1455       780.01       606.24
 1456      780.352       605.94
 1457      780.694       605.74
 1458      781.036       605.72
 1459      781.377       605.74
 1460      781.719        605.6
 1461       782.06       606.12
 1462      782.401       606.88
 1463      782.742       607.38
 1464      783.083       607.42
 1465      783.424       607.18
 1466      783.764       606.42
 1467      784.105       605.32
 1468      784.445       604.78
 1469      784.785       605.38
 1470      785.125       606.22
 1471      785.465       606.86
 1472      785.805       607.66
 1473      786.144       607.98
 1474      786.484        607.2
 1475      786.823       606.34
 1476      787.162        605.7
 1477      787.501       605.32
 1478       787.84       605.64
 1479      788.178        606.5
 1480      788.517          607
 1481      788.855       606.86
 1482      789.194       606.14
 1483      789.532       605.12
 1484       789.87       604.34
 1485      790.208       604.12
 1486      790.545        604.6
 1487      790.883       605.48
 1488       791.22       606.14
 1489      791.557       606.82
 1490      791.894       607.42
 1491      792.231       607.58
 1492      792.568       607.68
 1493      792.905       607.96
 1494      793.241       607.66
 1495      793.578       607.38
 1496      793.914        607.9
 1497       794.25       607.98
 1498      794.586        607.6
 1499      794.922       607.82
 1500      795.257       608.36
 1501      795.593       608.82
 1502      795.928       609.64
 1503      796.263       610.46
 1504      796.598       610.62
 1505      796.933       609.72
 1506      797.268        608.7
 1507      797.603          608
 1508      797.937       607.16
 1509      798.271       606.56
 1510      798.606       606.44
 1511       798.94       606.24
 1512      799.274       606.08
 1513      799.607       606.42
 1514      799.941        606.9
 1515      800.274       608.18
 1516      800.608       609.14
 1517      800.941       609.74
 1518      801.274       610.18
 1519      801.607       610.12
 1520      801.939       609.18
 1521      802.272       608.22
 1522      802.604       607.16
 1523      802.936       606.46
 1524      803.269       606.32
 1525      803.601        606.1
 1526      803.932        605.8
 1527      804.264       605.44
 1528      804.596       604.58
 1529      804.927        603.6
 1530      805.258        603.2
 1531      805.589        603.5
 1532       805.92       604.32
 1533      806.251       604.96
 1534      806.582       605.38
 1535      806.912       605.74
 1536      807.242       606.38
 1537      807.573       606.64
 1538      807.903       606.86
 1539      808.232       606.94
 1540      808.562       606.26
 1541      808.892       605.58
 1542      809.221       605.54
 1543      809.551       605.56
 1544       809.88        605.9
 1545      810.209       606.92
 1546      810.538        607.1
 1547      810.866       606.66
 1548      811.195       606.88
 1549      811.523       607.54
 1550      811.851        607.7
 1551       812.18        607.8
 1552      812.507       608.14
 1553      812.835       608.34
 1554      813.163       607.96
 1555       813.49       607.66
 1556      813.818       607.42
 1557      814.145       606.88
 1558      814.472       606.54
 1559      814.799       606.44
 1560      815.126       606.44
 1561      815.452       606.54
 1562      815.779       607.02
 1563      816.105       607.36
 1564      816.431       607.52
 1565      816.757       607.16
 1566      817.083       606.64
 1567      817.409       606.24
 1568      817.734       605.84
 1569       818.06       605.38
 1570      818.385       605.62
 1571       818.71       606.42
 1572      819.035       607.12
 1573       819.36       607.52
 1574      819.685        607.6
 1575      820.009       607.42
 1576      820.333       607.26
 1577      820.658       606.84
 1578      820.982       606.24
 1579      821.305       606.44
 1580      821.629       607.32
 1581      821.953       607.44
 1582      822.276       607.76
 1583        822.6        608.2
 1584      822.923       608.22
 1585      823.246       608.06
 1586      823.569       607.84
 1587      823.891       606.94
 1588      824.214       606.18
 1589      824.536       605.74
 1590      824.858          605
 1591       825.18       604.74
 1592      825.502       605.32
 1593      825.824       606.32
 1594      826.146       607.14
 1595      826.467       608.02
 1596      826.789        608.9
 1597       827.11       609.16
 1598      827.431       608.58
 1599      827.752       608.34
 1600      828.072       608.18
 1601      828.393       607.32
 1602      828.713       606.22
 1603      829.034       605.92
 1604      829.354       605.46
 1605      829.674       604.92
 1606      829.993       605.24
 1607      830.313       606.24
 1608      830.633       606.52
 1609      830.952        606.4
 1610      831.271       606.66
 1611       831.59       607.06
 1612      831.909          608
 1613      832.228       609.08
 1614      832.546          610
 1615      832.865       610.18
 1616      833.183        609.3
 1617      833.501       607.62
 1618      833.819       606.62
 1619      834.137        606.3
 1620      834.455       606.58
 1621      834.772       607.54
 1622      835.089       608.52
 1623      835.407        608.9
 1624      835.724        608.7
 1625       836.04       608.04
 1626      836.357       607.42
 1627      836.674        607.7
 1628       836.99       608.48
 1629      837.306       608.98
 1630      837.623       609.38
 1631      837.939       609.68
 1632      838.254       609.28
 1633       838.57       608.62
 1634      838.886       608.08
 1635      839.201       607.54
 1636      839.516       606.88
 1637      839.831       605.86
 1638      840.146        604.5
 1639      840.461       603.48
 1640      840.775       602.84
 1641       841.09       602.96
 1642      841.404       603.86
 1643      841.718       605.02
 1644      842.032       605.96
 1645      842.346       606.46
 1646      842.659       606.38
 1647      842.973       606.02
 1648      843.286       605.48
 1649      843.599       604.72
 1650      843.912       604.66
 1651      844.225        605.1
 1652      844.538       605.26
 1653      844.851       605.68
 1654      845.163       606.84
 1655      845.475       608.02
 1656      845.787       609.08
 1657      846.099       610.38
 1658      846.411       611.18
 1659      846.723       611.22
 1660      847.034          611
 1661      847.345       610.68
 1662      847.657       610.08
 1663      847.968        609.6
 1664      848.278        609.5
 1665      848.589       609.02
 1666        848.9       608.08
 1667       849.21        607.1
 1668       849.52       606.72
 1669       849.83       606.94
 1670       850.14       607.66
 1671       850.45       608.36
 1672      850.759       608.72
 1673      851.069       608.38
 1674      851.378       607.62
 1675      851.687       606.56
 1676      851.996       605.92
 1677      852.305       606.14
 1678      852.614       607.02
 1679      852.922       607.48
 1680       853.23       607.54
 1681      853.539       607.56
 1682      853.847       607.46
 1683      854.154        607.4
 1684      854.462       608.14
 1685       854.77       609.16
 1686      855.077       609.54
 1687      855.384       609.62
 1688      855.691        609.3
 1689      855.998       608.32
 1690      856.305       607.56
 1691      856.612       606.94
 1692      856.918       606.02
 1693      857.224       605.36
 1694       857.53       605.12
 1695      857.836       604.74
 1696      858.142       604.74
 1697      858.448        605.5
 1698      858.753       606.44
 1699      859.059       607.18
 1700      859.364        607.6
 1701      859.669       608.14
 1702      859.974        608.6
 1703      860.278       608.86
 1704      860.583        609.1
 1705      860.887        609.7
 1706      861.192       609.82
 1707      861.496       609.38
 1708        861.8        608.8
 1709      862.103       607.78
 1710      862.407       607.02
 1711       862.71       606.42
 1712      863.014       605.88
 1713      863.317        605.4
 1714       863.62       605.28
 1715      863.922       605.32
 1716      864.225       605.92
 1717      864.527       606.92
 1718       864.83       608.12
 1719      865.132       609.52
 1720      865.434       610.44
 1721      865.736       610.56
 1722      866.037       610.36
 1723      866.339       610.12
 1724       866.64       609.74
 1725      866.941        609.4
 1726      867.242       609.42
 1727      867.543       609.32
 1728      867.844       608.98
 1729      868.145       608.94
 1730      868.445       608.56
 1731      868.745       607.48
 1732      869.045       605.78
 1733      869.345       604.18
 1734      869.645       603.06
 1735      869.944          603
 1736      870.244       603.74
 1737      870.543       605.56
 1738      870.842        607.2
 1739      871.141       608.38
 1740       871.44       608.84
 1741      871.739       608.94
 1742      872.037       608.78
 1743      872.335       608.58
 1744      872.634       608.24
 1745      872.931       607.94
 1746      873.229       607.48
 1747      873.527       607.06
 1748      873.824        606.8
 1749      874.122          607
 1750      874.419       607.54
 1751      874.716       608.06
 1752      875.013        608.5
 1753      875.309       608.84
 1754      875.606       608.16
 1755      875.902       607.02
 1756      876.199       606.62
 1757      876.495       606.38
 1758       876.79       605.98
 1759      877.086       606.02
 1760      877.382        606.2
 1761      877.677       606.38
 1762      877.972       607.26
 1763      878.267       608.74
 1764      878.562       610.18
 1765      878.857          611
 1766      879.152       611.14
 1767      879.446       610.58
 1768       879.74       609.12
 1769      880.034       607.54
 1770      880.328       607.04
 1771      880.622       607.52
 1772      880.916        607.9
 1773      881.209       608.54
 1774      881.502       609.26
 1775      881.795       609.42
 1776      882.088        608.7
 1777      882.381        607.5
 1778      882.674       606.62
 1779      882.966       606.16
 1780      883.258       605.96
 1781      883.551        605.8
 1782      883.843       605.74
 1783      884.134       605.78
 1784      884.426       605.24
 1785      884.717        604.9
 1786      885.009        605.1
 1787        885.3       605.08
 1788      885.591       604.86
 1789      885.882       605.22
 1790      886.172       605.28
 1791      886.463       605.16
 1792      886.753       605.88
 1793      887.043       606.74
 1794      887.333       606.96
 1795      887.623       607.34
 1796      887.913       607.74
 1797      888.202       607.86
 1798      888.492       608.06
 1799      888.781        608.4
 1800       889.07       608.72
 1801      889.359       609.18
 1802      889.647       609.48
 1803      889.936        609.7
 1804      890.224       609.98
 1805      890.512       610.22
 1806        890.8       610.74
 1807      891.088       611.24
 1808      891.376       611.62
 1809      891.663       612.14
 1810      891.951       611.98
 1811      892.238       610.76
 1812      892.525       609.92
 1813      892.812       609.16
 1814      893.099       608.18
 1815      893.385       607.82
 1816      893.671        608.1
 1817      893.958       608.42
 1818      894.244       607.98
 1819       894.53       607.38
 1820      894.815       606.78
 1821      895.101        606.1
 1822      895.386          605
 1823      895.671       604.76
 1824      895.956       605.26
 1825      896.241       605.86
 1826      896.526       606.62
 1827       896.81       607.66
 1828      897.095        608.8
 1829      897.379        609.4
 1830      897.663       609.26
 1831      897.947       608.36
 1832      898.231       607.14
 1833      898.514       605.86
 1834      898.798       604.72
 1835      899.081       604.32
 1836      899.364       604.58
 1837      899.647       604.86
 1838      899.929       604.94
 1839      900.212        605.2
 1840      900.494        605.7
 1841      900.776       606.74
 1842      901.058       607.82
 1843       901.34       608.24
 1844      901.622       608.16
 1845      901.904        607.9
 1846      902.185       607.28
 1847      902.466       606.16
 1848      902.747       605.46
 1849      903.028       605.56
 1850      903.309       605.24
 1851      903.589       604.24
 1852       903.87       603.96
 1853       904.15        604.1
 1854       904.43       604.08
 1855       904.71       604.92
 1856      904.989       606.58
 1857      905.269       608.14
 1858      905.548        609.3
 1859      905.827       609.62
 1860      906.106        609.5
 1861      906.385       609.26
 1862      906.664       608.42
 1863      906.942       607.56
 1864      907.221       607.24
 1865      907.499       606.82
 1866      907.777       606.22
 1867      908.055        606.2
 1868      908.332       606.76
 1869       908.61        607.3
 1870      908.887       607.52
 1871      909.164       607.68
 1872      909.441       607.56
 1873      909.718       606.76
 1874      909.995       606.44
 1875      910.271       606.56
 1876      910.548        606.4
 1877      910.824       606.74
 1878        911.1        607.5
 1879      911.375        607.7
 1880      911.651       607.58
 1881      911.927        607.7
 1882      912.202        607.6
 1883      912.477       607.88
 1884      912.752       608.46
 1885      913.027       608.92
 1886      913.301       609.66
 1887      913.576       610.46
 1888       913.85       609.94
 1889      914.124       609.08
 1890      914.398        608.6
 1891      914.672       607.84
 1892      914.945       606.94
 1893      915.219       607.26
 1894      915.492       608.06
 1895      915.765       608.38
 1896      916.038       608.36
 1897      916.311        608.6
 1898      916.583       608.46
 1899      916.856        607.9
 1900      917.128        607.5
 1901        917.4        607.3
 1902      917.672       607.46
 1903      917.944       607.88
 1904      918.215        608.2
 1905      918.486       609.26
 1906      918.758       610.46
 1907      919.029       611.08
 1908      919.299       611.34
 1909       919.57       611.44
 1910      919.841       611.04
 1911      920.111       610.72
 1912      920.381       610.68
 1913      920.651        610.7
 1914      920.921       611.22
 1915      921.191       611.54
 1916       921.46       611.36
 1917      921.729       610.48
 1918      921.999       609.68
 1919      922.268       609.04
 1920      922.536       608.42
 1921      922.805       607.94
 1922      923.073        607.8
 1923      923.342       607.82
 1924       923.61       607.56
 1925      923.878        607.2
 1926      924.145       607.04
 1927      924.413        607.2
 1928       924.68       607.18
 1929      924.948       606.96
 1930      925.215       606.82
 1931      925.482       606.72
 1932      925.748       605.96
 1933      926.015       605.48
 1934      926.281       605.32
 1935      926.547       604.96
 1936      926.813       604.62
 1937      927.079        605.2
 1938      927.345       605.42
 1939       927.61        605.1
 1940      927.876       604.98
 1941      928.141        605.3
 1942      928.406       605.32
 1943      928.671       605.12
 1944      928.935       604.98
 1945        929.2       605.38
 1946      929.464       605.54
 1947      929.728       605.72
 1948      929.992       606.36
 1949      930.256        607.3
 1950       930.52        607.7
 1951      930.783       607.94
 1952      931.046       608.54
 1953      931.309        608.8
 1954      931.572       608.66
 1955      931.835       608.56
 1956      932.097       608.14
 1957       932.36       606.72
 1958      932.622       605.12
 1959      932.884       604.54
 1960      933.146       604.16
 1961      933.408       604.02
 1962      933.669       604.44
 1963       933.93       604.52
 1964      934.192       603.42
 1965      934.453       602.72
 1966      934.713       602.78
 1967      934.974       603.18
 1968      935.234       604.26
 1969      935.495       605.72
 1970      935.755       606.58
 1971      936.015       606.84
 1972      936.274       606.96
 1973      936.534       606.92
 1974      936.793       607.02
 1975      937.053       607.42
 1976      937.312        607.8
 1977      937.571       607.82
 1978      937.829       608.22
 1979      938.088       609.46
 1980      938.346       610.28
 1981      938.604       610.42
 1982      938.862        610.4
 1983       939.12       610.46
 1984      939.378       609.82
 1985      939.635       609.04
 1986      939.893       609.32
 1987       940.15       609.98
 1988      940.407       610.62
 1989      940.663       610.68
 1990       940.92       610.22
 1991      941.176       609.22
 1992      941.433       608.72
 1993      941.689       608.52
 1994      941.944        608.7
 1995        942.2       609.46
 1996      942.456        610.3
 1997      942.711       610.38
 1998      942.966       609.84
 1999      943.221       609.26
 2000      943.476       609.34
 2001      943.731       609.52
 2002      943.985       609.64
 2003      944.239       609.42
 2004      944.493       608.92
 2005      944.747        608.1
 2006      945.001       607.34
 2007      945.255        607.4
 2008      945.508       607.56
 2009      945.761       607.78
 2010      946.014       608.18
 2011      946.267       608.64
 2012       946.52       608.72
 2013      946.772       608.88
 2014      947.025       609.08
 2015      947.277       608.52
 2016      947.529       607.64
 2017      947.781       607.16
 2018      948.032       607.24
 2019      948.284       607.76
 2020      948.535       608.78
 2021      948.786       610.16
 2022      949.037       610.64
 2023      949.288       610.56
 2024      949.538       610.36
 2025      949.789       609.86
 2026      950.039       609.14
 2027      950.289        609.1
 2028      950.539       609.26
 2029      950.788       609.26
 2030      951.038        609.7
 2031      951.287        609.8
 2032      951.536       609.32
 2033      951.785       608.86
 2034      952.034       608.32
 2035      952.282       607.54
 2036      952.531       607.18
 2037      952.779       607.46
 2038      953.027       607.88
 2039      953.275        608.1
 2040      953.523       608.24
 2041       953.77       608.26
 2042      954.017        607.8
 2043      954.264       606.88
 2044      954.511        606.1
 2045      954.758       605.74
 2046      955.005      605.425
 2047      955.251      604.933
