scansci Spectrometer Data File
--- Measurement Setting ---
Type: Sample Spectrum
Date: Mon Oct 16 16:23:33 2023
User: (Reserved by scansci)
Serial: (Reserved by scansci)
Channel: No. 11
Integration Time: 1
Average: 10
Boxcar: 2
Electrical Dark: No-corrected
Time Normalize: (Reserved by scansci)
Dual-beam: (Reserved by scansci)
Reference Ch: (Reserved by scansci)
--- Measurement Data ---
Pixel   Wavelength   Intensity
    0        344.4      637.433
    1      344.867      637.325
    2      345.334       637.24
    3      345.801       637.24
    4      346.268       637.14
    5      346.735       637.68
    6      347.202        638.3
    7      347.669       638.66
    8      348.135        639.1
    9      348.602       639.62
   10      349.068        639.5
   11      349.535       639.68
   12      350.001       640.54
   13      350.467        640.7
   14      350.933       640.46
   15      351.399       640.76
   16      351.866       640.76
   17      352.331       640.34
   18      352.797        640.3
   19      353.263       640.26
   20      353.729       639.88
   21      354.194        639.4
   22       354.66        639.1
   23      355.126       638.82
   24      355.591        638.6
   25      356.056       638.34
   26      356.522       638.32
   27      356.987        638.3
   28      357.452          639
   29      357.917       640.16
   30      358.382       641.26
   31      358.847       642.24
   32      359.312       642.82
   33      359.776       642.48
   34      360.241       641.72
   35      360.706       641.12
   36       361.17       640.94
   37      361.634       641.26
   38      362.099          642
   39      362.563       642.56
   40      363.027       642.92
   41      363.491        642.4
   42      363.955       641.44
   43      364.419       640.48
   44      364.883       639.74
   45      365.347        639.1
   46      365.811        638.9
   47      366.274       638.94
   48      366.738       639.34
   49      367.201       639.98
   50      367.665       640.26
   51      368.128       640.32
   52      368.592       640.26
   53      369.055       639.52
   54      369.518       638.84
   55      369.981       639.34
   56      370.444       640.28
   57      370.907       640.88
   58       371.37        641.1
   59      371.832        641.1
   60      372.295       641.06
   61      372.757       641.02
   62       373.22       641.26
   63      373.682       642.14
   64      374.145       642.68
   65      374.607       642.28
   66      375.069       641.32
   67      375.531        640.1
   68      375.993       639.02
   69      376.455        638.8
   70      376.917       638.88
   71      377.379       639.28
   72      377.841       640.16
   73      378.302        640.9
   74      378.764          641
   75      379.225       640.52
   76      379.687       640.12
   77      380.148          640
   78      380.609       640.06
   79      381.071       640.06
   80      381.532       640.42
   81      381.993        640.4
   82      382.454       640.26
   83      382.915       640.08
   84      383.375       640.08
   85      383.836        640.3
   86      384.297       640.94
   87      384.757       641.26
   88      385.218       641.36
   89      385.678       640.86
   90      386.138       639.86
   91      386.599       638.88
   92      387.059       637.98
   93      387.519       637.02
   94      387.979        636.7
   95      388.439       636.88
   96      388.899       636.78
   97      389.358       636.92
   98      389.818        637.3
   99      390.278        637.6
  100      390.737        637.8
  101      391.197       638.54
  102      391.656       639.28
  103      392.115       639.34
  104      392.575        639.4
  105      393.034       639.82
  106      393.493       639.66
  107      393.952       638.78
  108      394.411        638.4
  109       394.87        638.4
  110      395.328       638.36
  111      395.787        638.5
  112      396.246          639
  113      396.704       639.98
  114      397.163       640.74
  115      397.621       640.98
  116      398.079       641.02
  117      398.537       641.36
  118      398.995        641.3
  119      399.454       640.86
  120      399.911       640.72
  121      400.369       640.88
  122      400.827       640.74
  123      401.285        640.3
  124      401.743        639.9
  125        402.2       639.18
  126      402.658       638.46
  127      403.115       638.12
  128      403.572       638.42
  129       404.03        639.1
  130      404.487       639.68
  131      404.944       640.16
  132      405.401       640.44
  133      405.858       640.16
  134      406.315       639.42
  135      406.771       639.28
  136      407.228       639.18
  137      407.685          639
  138      408.141        639.3
  139      408.598       639.98
  140      409.054       640.14
  141       409.51       640.08
  142      409.967       640.04
  143      410.423       639.64
  144      410.879       639.24
  145      411.335       639.18
  146      411.791       639.34
  147      412.246       639.54
  148      412.702       639.72
  149      413.158       639.62
  150      413.613       639.72
  151      414.069       639.78
  152      414.524       639.78
  153       414.98       639.92
  154      415.435        640.5
  155       415.89       640.88
  156      416.345       641.02
  157        416.8       640.92
  158      417.255       640.86
  159       417.71        640.8
  160      418.165       640.84
  161      418.619       640.74
  162      419.074       640.54
  163      419.529        640.3
  164      419.983        639.9
  165      420.437       639.36
  166      420.892       639.34
  167      421.346       639.38
  168        421.8        639.2
  169      422.254       639.14
  170      422.708        639.3
  171      423.162       639.22
  172      423.616       639.22
  173       424.07       639.92
  174      424.523       640.56
  175      424.977       640.42
  176       425.43       640.42
  177      425.884       640.96
  178      426.337       640.74
  179       426.79       640.24
  180      427.243       640.22
  181      427.697       639.96
  182       428.15       639.52
  183      428.602       639.56
  184      429.055       639.78
  185      429.508       639.66
  186      429.961       639.52
  187      430.413        639.8
  188      430.866       640.34
  189      431.318       641.02
  190      431.771        642.5
  191      432.223       644.02
  192      432.675       644.16
  193      433.127       643.66
  194      433.579       642.88
  195      434.031       641.52
  196      434.483        640.1
  197      434.935       639.62
  198      435.387        639.9
  199      435.838       640.32
  200       436.29       640.54
  201      436.741        640.8
  202      437.193        640.5
  203      437.644       639.56
  204      438.095       638.82
  205      438.546       638.38
  206      438.997       638.02
  207      439.448       637.72
  208      439.899        637.6
  209       440.35       637.82
  210      440.801       638.14
  211      441.251       638.22
  212      441.702        638.6
  213      442.152       638.84
  214      442.603          638
  215      443.053          637
  216      443.503       636.46
  217      443.954        636.2
  218      444.404       636.52
  219      444.854        637.5
  220      445.304       638.56
  221      445.753        639.5
  222      446.203       640.76
  223      446.653        641.9
  224      447.102       642.64
  225      447.552       643.24
  226      448.001        643.5
  227      448.451       642.76
  228        448.9       641.34
  229      449.349        640.2
  230      449.798        639.1
  231      450.247        638.2
  232      450.696       637.94
  233      451.145       637.72
  234      451.594       637.68
  235      452.042       637.86
  236      452.491        638.2
  237      452.939       638.52
  238      453.388       638.96
  239      453.836       639.08
  240      454.285        639.6
  241      454.733       640.62
  242      455.181       641.68
  243      455.629       642.54
  244      456.077        642.9
  245      456.525       642.54
  246      456.972       641.82
  247       457.42       640.78
  248      457.868       639.68
  249      458.315       639.38
  250      458.763       639.18
  251       459.21        638.6
  252      459.657        638.4
  253      460.104       638.56
  254      460.552        638.8
  255      460.999       639.38
  256      461.446       640.18
  257      461.892       640.48
  258      462.339       640.34
  259      462.786       639.62
  260      463.233       638.76
  261      463.679       638.26
  262      464.125       638.36
  263      464.572       639.38
  264      465.018       640.08
  265      465.464       640.06
  266       465.91       639.44
  267      466.356        638.8
  268      466.802       638.12
  269      467.248       637.96
  270      467.694       638.76
  271       468.14       639.92
  272      468.585       640.28
  273      469.031       639.88
  274      469.476        639.6
  275      469.922       639.14
  276      470.367       638.54
  277      470.812       638.08
  278      471.257       637.76
  279      471.702       637.66
  280      472.147        637.9
  281      472.592       638.44
  282      473.037       639.44
  283      473.482       640.44
  284      473.926       641.28
  285      474.371       641.54
  286      474.815       641.26
  287      475.259       640.74
  288      475.704       640.44
  289      476.148       639.86
  290      476.592        639.3
  291      477.036        639.4
  292       477.48       640.02
  293      477.924       640.42
  294      478.368        641.1
  295      478.811       642.08
  296      479.255       642.84
  297      479.698       643.34
  298      480.142       644.16
  299      480.585       644.84
  300      481.028       645.06
  301      481.472       644.82
  302      481.915       644.46
  303      482.358       643.76
  304      482.801       642.88
  305      483.244       641.88
  306      483.686       641.18
  307      484.129       640.84
  308      484.572       640.66
  309      485.014       640.54
  310      485.456       640.86
  311      485.899       641.52
  312      486.341       641.84
  313      486.783       641.74
  314      487.225       641.82
  315      487.667       642.16
  316      488.109       641.74
  317      488.551       641.08
  318      488.993        641.2
  319      489.434        641.2
  320      489.876       640.62
  321      490.318       640.36
  322      490.759       640.64
  323        491.2       640.46
  324      491.641       640.18
  325      492.083       640.42
  326      492.524       640.84
  327      492.965        640.7
  328      493.406       640.68
  329      493.846       641.14
  330      494.287       641.42
  331      494.728       641.56
  332      495.168          642
  333      495.609       642.28
  334      496.049       642.08
  335      496.489       641.74
  336       496.93       641.44
  337       497.37        641.2
  338       497.81       641.18
  339       498.25        641.3
  340       498.69        641.2
  341      499.129        640.7
  342      499.569       640.12
  343      500.009       639.44
  344      500.448       638.76
  345      500.888       639.32
  346      501.327       640.62
  347      501.766       641.24
  348      502.206       641.72
  349      502.645       642.38
  350      503.084       641.78
  351      503.523       640.42
  352      503.961       639.76
  353        504.4        639.3
  354      504.839       638.68
  355      505.277       638.36
  356      505.716       638.44
  357      506.154       638.44
  358      506.593       638.84
  359      507.031       639.38
  360      507.469       639.44
  361      507.907        639.1
  362      508.345        638.4
  363      508.783       637.36
  364      509.221       636.48
  365      509.659       636.14
  366      510.096       636.54
  367      510.534        637.6
  368      510.971       638.28
  369      511.409        638.5
  370      511.846        638.8
  371      512.283       638.88
  372       512.72       638.52
  373      513.157       638.48
  374      513.594       638.64
  375      514.031       638.32
  376      514.468       638.08
  377      514.905       638.26
  378      515.341       638.54
  379      515.778        638.4
  380      516.214       638.52
  381       516.65       638.48
  382      517.087       638.28
  383      517.523       638.44
  384      517.959       639.34
  385      518.395       640.54
  386      518.831       641.78
  387      519.267       642.56
  388      519.702       642.56
  389      520.138       641.98
  390      520.574       640.98
  391      521.009       639.94
  392      521.444        639.1
  393       521.88       638.44
  394      522.315       638.22
  395       522.75       638.04
  396      523.185       637.76
  397       523.62       637.86
  398      524.055        638.5
  399       524.49       638.92
  400      524.924       639.62
  401      525.359       640.46
  402      525.794       640.98
  403      526.228       640.88
  404      526.662        640.8
  405      527.097        640.3
  406      527.531       639.24
  407      527.965       638.34
  408      528.399       638.22
  409      528.833        638.3
  410      529.267        638.8
  411        529.7       639.66
  412      530.134       640.14
  413      530.568        640.1
  414      531.001       640.02
  415      531.434       639.78
  416      531.868       639.42
  417      532.301       639.44
  418      532.734       639.54
  419      533.167       639.66
  420        533.6        639.6
  421      534.033       639.42
  422      534.466       639.28
  423      534.898       639.12
  424      535.331       638.82
  425      535.763       638.88
  426      536.196        639.6
  427      536.628       640.22
  428       537.06        640.4
  429      537.493       640.14
  430      537.925        639.5
  431      538.357       638.82
  432      538.788       638.76
  433       539.22       639.26
  434      539.652       640.18
  435      540.084       641.32
  436      540.515       642.12
  437      540.947        642.6
  438      541.378       642.98
  439      541.809       643.06
  440       542.24        643.1
  441      542.672       643.16
  442      543.103       642.72
  443      543.533       642.38
  444      543.964       642.44
  445      544.395       642.48
  446      544.826       642.34
  447      545.256        642.1
  448      545.687       641.82
  449      546.117       641.38
  450      546.547        640.6
  451      546.978       639.76
  452      547.408       638.98
  453      547.838       638.14
  454      548.268       637.54
  455      548.698       637.28
  456      549.127       637.52
  457      549.557       638.32
  458      549.987       639.32
  459      550.416       639.84
  460      550.846        640.3
  461      551.275       640.52
  462      551.704        640.8
  463      552.133       640.76
  464      552.562       640.78
  465      552.991       640.68
  466       553.42       640.76
  467      553.849       640.54
  468      554.278       640.36
  469      554.706       640.06
  470      555.135       639.62
  471      555.563       638.84
  472      555.991       637.96
  473       556.42       637.72
  474      556.848       637.88
  475      557.276       638.34
  476      557.704       638.96
  477      558.132       639.62
  478       558.56       639.46
  479      558.987       639.32
  480      559.415       639.62
  481      559.843        639.9
  482       560.27       639.86
  483      560.697       640.04
  484      561.125        640.3
  485      561.552       640.42
  486      561.979       640.48
  487      562.406       640.28
  488      562.833       639.86
  489       563.26        639.5
  490      563.686        639.1
  491      564.113        638.9
  492       564.54       638.94
  493      564.966       638.94
  494      565.392       639.02
  495      565.819       638.86
  496      566.245       638.84
  497      566.671       638.98
  498      567.097       638.52
  499      567.523       638.04
  500      567.949       637.58
  501      568.374       636.76
  502        568.8       636.42
  503      569.226        636.9
  504      569.651       636.62
  505      570.077       636.68
  506      570.502       637.34
  507      570.927       637.76
  508      571.352          638
  509      571.777       638.74
  510      572.202       639.02
  511      572.627       638.44
  512      573.052       637.76
  513      573.476        637.6
  514      573.901       637.58
  515      574.325       638.04
  516       574.75       638.96
  517      575.174        639.7
  518      575.598        639.9
  519      576.022       639.76
  520      576.446       639.14
  521       576.87        638.3
  522      577.294       637.88
  523      577.718       637.54
  524      578.142       637.66
  525      578.565       637.82
  526      578.989       637.96
  527      579.412       638.16
  528      579.835       638.64
  529      580.259       638.72
  530      580.682       638.88
  531      581.105       639.78
  532      581.528        640.7
  533      581.951        641.2
  534      582.373       641.44
  535      582.796       641.52
  536      583.219       640.86
  537      583.641       639.44
  538      584.063       638.28
  539      584.486        638.1
  540      584.908       638.04
  541       585.33          638
  542      585.752        638.8
  543      586.174       639.62
  544      586.596       639.88
  545      587.018       640.42
  546      587.439       640.92
  547      587.861       640.64
  548      588.282       640.12
  549      588.704        639.8
  550      589.125       639.42
  551      589.546       639.28
  552      589.967       639.26
  553      590.388        639.4
  554      590.809       639.42
  555       591.23       639.38
  556      591.651       639.58
  557      592.071       640.18
  558      592.492       640.64
  559      592.912       640.68
  560      593.333       640.64
  561      593.753        640.2
  562      594.173       639.62
  563      594.593       638.96
  564      595.013       638.42
  565      595.433       637.82
  566      595.853       637.64
  567      596.273       637.34
  568      596.693       637.06
  569      597.112       637.18
  570      597.532       637.56
  571      597.951        637.7
  572       598.37        637.8
  573      598.789       638.38
  574      599.208        639.2
  575      599.627       639.76
  576      600.046        640.1
  577      600.465        640.6
  578      600.884        640.6
  579      601.303       639.86
  580      601.721       639.52
  581      602.139       639.54
  582      602.558       639.42
  583      602.976       639.52
  584      603.394       639.98
  585      603.812       640.08
  586       604.23       639.98
  587      604.648       639.94
  588      605.066        640.2
  589      605.484       640.56
  590      605.901       640.92
  591      606.319       641.18
  592      606.736       641.44
  593      607.154        641.2
  594      607.571       640.92
  595      607.988       640.74
  596      608.405       640.46
  597      608.822       640.04
  598      609.239       639.56
  599      609.656       638.76
  600      610.072       638.08
  601      610.489       637.92
  602      610.905       638.42
  603      611.322       639.06
  604      611.738       639.68
  605      612.154        640.1
  606       612.57        640.2
  607      612.986        639.8
  608      613.402       639.42
  609      613.818       639.54
  610      614.234       639.64
  611       614.65       639.26
  612      615.065        639.1
  613      615.481       639.42
  614      615.896       639.76
  615      616.311       640.06
  616      616.727       640.42
  617      617.142       640.46
  618      617.557       639.94
  619      617.972        638.8
  620      618.386       637.62
  621      618.801        637.1
  622      619.216       636.78
  623       619.63        636.6
  624      620.045       636.96
  625      620.459        637.5
  626      620.873       637.84
  627      621.287       638.04
  628      621.702       638.12
  629      622.116        638.1
  630      622.529        638.1
  631      622.943        638.2
  632      623.357       638.78
  633      623.771       639.74
  634      624.184       640.48
  635      624.597       641.12
  636      625.011       641.44
  637      625.424        641.2
  638      625.837       640.76
  639       626.25       640.32
  640      626.663        639.9
  641      627.076       639.66
  642      627.489       639.84
  643      627.901       640.02
  644      628.314       640.42
  645      628.726       640.76
  646      629.139       640.62
  647      629.551       640.16
  648      629.963       640.06
  649      630.375       639.76
  650      630.787       638.94
  651      631.199       638.66
  652      631.611        638.6
  653      632.023        638.1
  654      632.434       637.64
  655      632.846       637.98
  656      633.257       638.92
  657      633.669       639.26
  658       634.08       639.22
  659      634.491       639.18
  660      634.902        638.5
  661      635.313       636.88
  662      635.724        636.1
  663      636.135       636.24
  664      636.545       636.58
  665      636.956        637.3
  666      637.366       638.02
  667      637.777       638.66
  668      638.187       639.36
  669      638.597       639.88
  670      639.007       640.22
  671      639.417       641.02
  672      639.827       641.46
  673      640.237        641.1
  674      640.647       640.96
  675      641.056       640.48
  676      641.466       639.52
  677      641.875       638.88
  678      642.285        638.8
  679      642.694       638.38
  680      643.103       638.16
  681      643.512       638.26
  682      643.921       638.54
  683       644.33       638.56
  684      644.739        638.5
  685      645.148        638.7
  686      645.556       639.02
  687      645.965       639.04
  688      646.373       639.54
  689      646.781       640.42
  690      647.189       641.16
  691      647.598       641.54
  692      648.006        641.5
  693      648.414       641.28
  694      648.821       641.38
  695      649.229       641.14
  696      649.637       640.44
  697      650.044        639.9
  698      650.452       639.02
  699      650.859       637.46
  700      651.266       636.34
  701      651.673       636.46
  702       652.08       637.12
  703      652.487       637.62
  704      652.894        637.9
  705      653.301        638.3
  706      653.708       638.24
  707      654.114       637.42
  708      654.521       636.82
  709      654.927       636.98
  710      655.333       637.64
  711       655.74        638.6
  712      656.146        640.1
  713      656.552       641.26
  714      656.958       641.72
  715      657.363       641.74
  716      657.769       641.42
  717      658.175       641.14
  718       658.58       641.06
  719      658.986       640.96
  720      659.391          641
  721      659.796       641.04
  722      660.201       640.94
  723      660.606       640.72
  724      661.011        640.7
  725      661.416       640.52
  726      661.821        640.3
  727      662.225       639.44
  728       662.63       638.66
  729      663.034       638.42
  730      663.439       638.36
  731      663.843       638.32
  732      664.247       638.76
  733      664.651       639.42
  734      665.055       640.12
  735      665.459       640.28
  736      665.863       640.24
  737      666.267        639.7
  738       666.67        639.2
  739      667.074       638.72
  740      667.477        638.7
  741       667.88        638.7
  742      668.283       638.84
  743      668.687       638.82
  744       669.09       638.88
  745      669.492        638.8
  746      669.895       638.58
  747      670.298       638.98
  748      670.701       640.24
  749      671.103          641
  750      671.505        640.9
  751      671.908       640.54
  752       672.31        640.1
  753      672.712       639.14
  754      673.114       638.12
  755      673.516       637.68
  756      673.918       637.72
  757       674.32       637.66
  758      674.721       637.02
  759      675.123       636.58
  760      675.524       636.92
  761      675.926       637.46
  762      676.327          638
  763      676.728       639.06
  764      677.129       640.04
  765       677.53       640.54
  766      677.931       640.76
  767      678.332       640.94
  768      678.732        640.8
  769      679.133        640.4
  770      679.533        639.9
  771      679.934        639.7
  772      680.334       639.38
  773      680.734       639.06
  774      681.134       638.58
  775      681.534       638.12
  776      681.934       637.38
  777      682.334       636.56
  778      682.733          636
  779      683.133       636.02
  780      683.532       636.46
  781      683.932       637.02
  782      684.331       637.64
  783       684.73       638.16
  784      685.129       638.34
  785      685.528       638.26
  786      685.927       638.64
  787      686.326       639.26
  788      686.725       639.38
  789      687.123       639.44
  790      687.522       639.74
  791       687.92       639.52
  792      688.319       639.14
  793      688.717       639.16
  794      689.115        639.6
  795      689.513       639.54
  796      689.911        639.6
  797      690.309       639.84
  798      690.706       639.78
  799      691.104       639.08
  800      691.501       638.44
  801      691.899       638.18
  802      692.296       638.32
  803      692.693       638.78
  804       693.09       639.24
  805      693.488       639.72
  806      693.884       640.12
  807      694.281        640.2
  808      694.678       640.06
  809      695.075       640.02
  810      695.471       639.82
  811      695.868       639.12
  812      696.264        638.1
  813       696.66       637.84
  814      697.056       638.24
  815      697.452       638.52
  816      697.848       638.72
  817      698.244        639.1
  818       698.64       639.12
  819      699.035       639.22
  820      699.431       639.68
  821      699.826       639.92
  822      700.222       640.16
  823      700.617       640.18
  824      701.012       639.54
  825      701.407       639.12
  826      701.802       639.52
  827      702.197       639.82
  828      702.592        639.9
  829      702.986       639.98
  830      703.381       639.76
  831      703.775       639.12
  832       704.17       638.76
  833      704.564          639
  834      704.958       639.72
  835      705.352       639.96
  836      705.746       639.98
  837       706.14       639.94
  838      706.533       639.86
  839      706.927       639.74
  840      707.321       640.04
  841      707.714       640.76
  842      708.107        640.9
  843      708.501       640.24
  844      708.894       639.42
  845      709.287       638.92
  846       709.68        638.2
  847      710.073       637.82
  848      710.465       638.06
  849      710.858       638.38
  850      711.251       638.54
  851      711.643       638.78
  852      712.035       638.68
  853      712.428       638.04
  854       712.82       637.72
  855      713.212       637.46
  856      713.604       637.26
  857      713.995       638.02
  858      714.387       639.36
  859      714.779       639.86
  860       715.17       640.02
  861      715.562       640.18
  862      715.953        639.9
  863      716.344       640.08
  864      716.735       640.92
  865      717.127       641.94
  866      717.517       642.38
  867      717.908       641.94
  868      718.299       640.38
  869       718.69       638.96
  870       719.08       637.82
  871      719.471       637.36
  872      719.861        638.1
  873      720.251       639.06
  874      720.641       639.54
  875      721.031       640.06
  876      721.421       640.54
  877      721.811       640.44
  878      722.201       640.64
  879       722.59       640.62
  880       722.98        640.5
  881      723.369       640.14
  882      723.759       639.56
  883      724.148       638.92
  884      724.537       638.74
  885      724.926        638.3
  886      725.315       637.78
  887      725.704        637.6
  888      726.092        637.6
  889      726.481       637.58
  890       726.87        637.9
  891      727.258       638.56
  892      727.646       639.14
  893      728.034       639.46
  894      728.423        639.6
  895      728.811       639.54
  896      729.198       639.58
  897      729.586       639.62
  898      729.974        639.8
  899      730.362       640.06
  900      730.749       640.38
  901      731.136       639.84
  902      731.524       639.24
  903      731.911       638.92
  904      732.298        638.6
  905      732.685        637.8
  906      733.072       637.32
  907      733.459       637.34
  908      733.845       637.34
  909      734.232       637.44
  910      734.618       637.84
  911      735.005        638.2
  912      735.391       638.16
  913      735.777       638.02
  914      736.163        637.7
  915      736.549       637.42
  916      736.935       637.58
  917      737.321       638.08
  918      737.706        638.9
  919      738.092       639.92
  920      738.477       640.82
  921      738.863        641.1
  922      739.248       640.96
  923      739.633       640.62
  924      740.018       640.02
  925      740.403        639.4
  926      740.788       639.24
  927      741.173       639.32
  928      741.557       639.44
  929      741.942       639.84
  930      742.326       640.16
  931      742.711          640
  932      743.095       639.38
  933      743.479       638.52
  934      743.863        638.1
  935      744.247       638.16
  936      744.631       638.58
  937      745.015        639.5
  938      745.398       640.32
  939      745.782       640.14
  940      746.165       639.78
  941      746.548       639.76
  942      746.932       639.82
  943      747.315       640.36
  944      747.698       641.36
  945      748.081       642.34
  946      748.463       643.14
  947      748.846       643.46
  948      749.229       642.94
  949      749.611        642.3
  950      749.993       641.88
  951      750.376       641.24
  952      750.758       640.36
  953       751.14        639.7
  954      751.522        639.7
  955      751.904        639.6
  956      752.285       639.34
  957      752.667       639.72
  958      753.049        640.4
  959       753.43        640.3
  960      753.811       639.94
  961      754.193        639.8
  962      754.574       639.54
  963      754.955       638.84
  964      755.336        638.3
  965      755.717       637.88
  966      756.097       637.76
  967      756.478       637.56
  968      756.858       637.66
  969      757.239       638.16
  970      757.619       639.18
  971      757.999       639.58
  972      758.379       639.54
  973      758.759       639.88
  974      759.139       639.76
  975      759.519       638.84
  976      759.899       638.72
  977      760.278        639.2
  978      760.658          639
  979      761.037       638.74
  980      761.417       639.08
  981      761.796       639.16
  982      762.175       638.96
  983      762.554          639
  984      762.933       639.38
  985      763.311        639.2
  986       763.69        638.6
  987      764.068        638.5
  988      764.447       638.32
  989      764.825       637.62
  990      765.203       637.06
  991      765.582       637.02
  992       765.96       637.02
  993      766.338       637.32
  994      766.715       637.78
  995      767.093        638.4
  996      767.471       639.18
  997      767.848       639.58
  998      768.226       639.66
  999      768.603        639.8
 1000       768.98       640.06
 1001      769.357       640.14
 1002      769.734       640.02
 1003      770.111       639.84
 1004      770.488       639.64
 1005      770.864        639.2
 1006      771.241       638.38
 1007      771.617       637.86
 1008      771.994        637.6
 1009       772.37       637.66
 1010      772.746       637.98
 1011      773.122        638.7
 1012      773.498       639.74
 1013      773.874       640.62
 1014       774.25       640.96
 1015      774.625       640.94
 1016      775.001       640.54
 1017      775.376        639.9
 1018      775.751        639.1
 1019      776.127       637.96
 1020      776.502       636.96
 1021      776.877       636.86
 1022      777.252       636.52
 1023      777.626       636.18
 1024      778.001       636.74
 1025      778.375       637.44
 1026       778.75        637.4
 1027      779.124       637.62
 1028      779.499        638.5
 1029      779.873       638.98
 1030      780.247       639.08
 1031      780.621       639.74
 1032      780.994       640.46
 1033      781.368       640.52
 1034      781.742       640.68
 1035      782.115       640.92
 1036      782.489       640.46
 1037      782.862       639.64
 1038      783.235       639.24
 1039      783.608        639.4
 1040      783.981        639.8
 1041      784.354       640.44
 1042      784.727       641.24
 1043        785.1        641.4
 1044      785.472       640.72
 1045      785.845       639.88
 1046      786.217       638.84
 1047      786.589       637.78
 1048      786.961        637.6
 1049      787.333       637.86
 1050      787.705       638.06
 1051      788.077       638.16
 1052      788.449        638.2
 1053       788.82       637.96
 1054      789.192       637.86
 1055      789.563       638.04
 1056      789.934       638.14
 1057      790.306        638.2
 1058      790.677        638.4
 1059      791.048       638.34
 1060      791.419       638.16
 1061      791.789        638.1
 1062       792.16       637.56
 1063       792.53        636.6
 1064      792.901       636.08
 1065      793.271       635.82
 1066      793.641       635.82
 1067      794.012       636.32
 1068      794.382       636.82
 1069      794.751       636.98
 1070      795.121       637.38
 1071      795.491        637.8
 1072      795.861       638.12
 1073       796.23       638.56
 1074      796.599       638.92
 1075      796.969       638.78
 1076      797.338       638.28
 1077      797.707        638.2
 1078      798.076       638.74
 1079      798.445       639.34
 1080      798.813       639.92
 1081      799.182        641.1
 1082       799.55        642.3
 1083      799.919       642.48
 1084      800.287       642.32
 1085      800.655       641.82
 1086      801.023        640.7
 1087      801.391       639.22
 1088      801.759       638.38
 1089      802.127       638.36
 1090      802.495       638.92
 1091      802.862       639.92
 1092       803.23       640.86
 1093      803.597       641.46
 1094      803.964        641.5
 1095      804.331       641.24
 1096      804.698       640.86
 1097      805.065       640.94
 1098      805.432        641.4
 1099      805.799       641.74
 1100      806.165       641.84
 1101      806.532       641.76
 1102      806.898       641.56
 1103      807.264        640.9
 1104      807.631        640.3
 1105      807.997       640.48
 1106      808.363        640.6
 1107      808.728       639.78
 1108      809.094       639.64
 1109       809.46       639.92
 1110      809.825       639.54
 1111      810.191       639.26
 1112      810.556       639.82
 1113      810.921       639.82
 1114      811.286       639.02
 1115      811.651       638.04
 1116      812.016       637.38
 1117      812.381          637
 1118      812.745       636.86
 1119       813.11       636.98
 1120      813.474       637.72
 1121      813.839       638.42
 1122      814.203        638.6
 1123      814.567       638.82
 1124      814.931       639.24
 1125      815.295       639.18
 1126      815.659        639.2
 1127      816.022       639.38
 1128      816.386       639.24
 1129      816.749        639.2
 1130      817.113       639.36
 1131      817.476       638.98
 1132      817.839       638.72
 1133      818.202       638.64
 1134      818.565       638.48
 1135      818.928       638.24
 1136      819.291       638.54
 1137      819.653        638.8
 1138      820.016       638.64
 1139      820.378        638.4
 1140       820.74       638.68
 1141      821.102       638.76
 1142      821.464       638.98
 1143      821.826       639.96
 1144      822.188       640.66
 1145       822.55       640.58
 1146      822.912        640.4
 1147      823.273       640.06
 1148      823.634       639.38
 1149      823.996       638.82
 1150      824.357       638.24
 1151      824.718       638.02
 1152      825.079       638.42
 1153       825.44       639.22
 1154      825.801       639.96
 1155      826.161       640.84
 1156      826.522       641.46
 1157      826.882       640.82
 1158      827.242       639.08
 1159      827.603        637.8
 1160      827.963       637.18
 1161      828.323       636.66
 1162      828.682       636.68
 1163      829.042       637.54
 1164      829.402       638.26
 1165      829.761       638.32
 1166      830.121       638.24
 1167       830.48        638.8
 1168      830.839        639.6
 1169      831.198       640.38
 1170      831.557       641.42
 1171      831.916       642.92
 1172      832.275        643.8
 1173      832.634       644.08
 1174      832.992       643.94
 1175      833.351       643.62
 1176      833.709       642.68
 1177      834.067       641.72
 1178      834.425       641.56
 1179      834.783       642.34
 1180      835.141        643.1
 1181      835.499       643.78
 1182      835.857       644.24
 1183      836.214       644.06
 1184      836.572       643.38
 1185      836.929        642.8
 1186      837.286       642.78
 1187      837.644       643.08
 1188      838.001       643.12
 1189      838.357       643.06
 1190      838.714       643.46
 1191      839.071       643.48
 1192      839.428       642.92
 1193      839.784        642.1
 1194       840.14       641.34
 1195      840.497       640.02
 1196      840.853       639.12
 1197      841.209       639.08
 1198      841.565       639.34
 1199       841.92       639.58
 1200      842.276       640.04
 1201      842.632       639.98
 1202      842.987        639.7
 1203      843.343       639.62
 1204      843.698       639.66
 1205      844.053        639.6
 1206      844.408       639.32
 1207      844.763        638.4
 1208      845.118       637.82
 1209      845.472       637.44
 1210      845.827        637.2
 1211      846.181       636.88
 1212      846.536       637.04
 1213       846.89       637.48
 1214      847.244       637.86
 1215      847.598       638.26
 1216      847.952       639.48
 1217      848.306       640.68
 1218       848.66       641.14
 1219      849.013        640.8
 1220      849.367       639.86
 1221       849.72       638.58
 1222      850.073       637.94
 1223      850.427        637.9
 1224       850.78        638.3
 1225      851.133       638.84
 1226      851.485       639.44
 1227      851.838       639.52
 1228      852.191       639.06
 1229      852.543       638.96
 1230      852.896       639.24
 1231      853.248       639.38
 1232        853.6       639.44
 1233      853.952        639.7
 1234      854.304        639.6
 1235      854.656       639.18
 1236      855.007       638.96
 1237      855.359       638.84
 1238       855.71        638.2
 1239      856.062        637.9
 1240      856.413       638.44
 1241      856.764       638.98
 1242      857.115       639.58
 1243      857.466       640.34
 1244      857.817       640.54
 1245      858.168       640.48
 1246      858.518       640.18
 1247      858.869       639.66
 1248      859.219        639.8
 1249      859.569       640.36
 1250       859.92       640.38
 1251       860.27        640.1
 1252      860.619        639.8
 1253      860.969       639.28
 1254      861.319       638.86
 1255      861.669        638.8
 1256      862.018       639.28
 1257      862.367       639.92
 1258      862.717       640.26
 1259      863.066       640.24
 1260      863.415       640.06
 1261      863.764       639.48
 1262      864.112       638.44
 1263      864.461       637.86
 1264       864.81       637.88
 1265      865.158       638.12
 1266      865.507        638.6
 1267      865.855          640
 1268      866.203        641.4
 1269      866.551       642.08
 1270      866.899        642.2
 1271      867.247       642.12
 1272      867.594       641.62
 1273      867.942       640.92
 1274      868.289        640.6
 1275      868.637       640.72
 1276      868.984       640.84
 1277      869.331       640.84
 1278      869.678       640.88
 1279      870.025       641.28
 1280      870.372       641.82
 1281      870.718       642.16
 1282      871.065        641.9
 1283      871.411       641.44
 1284      871.758        640.4
 1285      872.104       638.92
 1286       872.45       638.08
 1287      872.796        638.2
 1288      873.142       638.34
 1289      873.488       638.26
 1290      873.833       638.64
 1291      874.179        639.3
 1292      874.524       639.42
 1293      874.869       639.16
 1294      875.215       639.38
 1295       875.56        639.4
 1296      875.905       639.12
 1297       876.25       639.04
 1298      876.594       639.32
 1299      876.939       639.56
 1300      877.283        639.7
 1301      877.628       639.48
 1302      877.972       639.36
 1303      878.316       639.32
 1304       878.66       638.98
 1305      879.004       638.94
 1306      879.348        639.5
 1307      879.692       640.52
 1308      880.035       641.22
 1309      880.379       641.42
 1310      880.722       641.12
 1311      881.066       640.12
 1312      881.409       638.18
 1313      881.752       636.58
 1314      882.095       636.12
 1315      882.438       636.38
 1316       882.78       637.18
 1317      883.123       638.34
 1318      883.465       639.44
 1319      883.808       639.62
 1320       884.15       639.02
 1321      884.492        638.3
 1322      884.834       637.58
 1323      885.176       636.96
 1324      885.518        636.9
 1325      885.859       637.02
 1326      886.201       637.52
 1327      886.542       638.08
 1328      886.884        638.3
 1329      887.225        638.5
 1330      887.566       638.64
 1331      887.907        638.2
 1332      888.248        637.7
 1333      888.589       637.12
 1334      888.929       636.84
 1335       889.27       637.16
 1336       889.61       637.68
 1337      889.951       637.64
 1338      890.291       637.72
 1339      890.631        637.4
 1340      890.971       636.98
 1341      891.311       636.82
 1342       891.65       637.62
 1343       891.99       638.66
 1344      892.329        639.6
 1345      892.669       640.26
 1346      893.008       640.78
 1347      893.347       640.64
 1348      893.686       639.94
 1349      894.025       639.52
 1350      894.364       639.26
 1351      894.703       638.46
 1352      895.041       637.86
 1353       895.38       637.54
 1354      895.718       637.16
 1355      896.056       637.14
 1356      896.395       637.66
 1357      896.733       638.24
 1358      897.071       638.74
 1359      897.408       639.12
 1360      897.746       639.48
 1361      898.084        639.5
 1362      898.421       639.32
 1363      898.758       639.12
 1364      899.095       638.84
 1365      899.433       638.46
 1366       899.77       638.32
 1367      900.106       638.44
 1368      900.443          639
 1369       900.78       639.62
 1370      901.116       640.04
 1371      901.453       640.08
 1372      901.789       639.82
 1373      902.125       639.56
 1374      902.461       639.32
 1375      902.797       638.78
 1376      903.133       638.82
 1377      903.469       639.08
 1378      903.804       638.78
 1379       904.14       638.26
 1380      904.475       637.98
 1381       904.81       637.58
 1382      905.146       637.48
 1383      905.481       637.62
 1384      905.815       637.88
 1385       906.15       638.16
 1386      906.485        638.1
 1387      906.819       637.56
 1388      907.154       637.08
 1389      907.488       636.62
 1390      907.822       636.12
 1391      908.156       636.32
 1392       908.49       636.74
 1393      908.824       637.36
 1394      909.158       638.34
 1395      909.492       639.66
 1396      909.825       640.22
 1397      910.159        640.5
 1398      910.492       640.28
 1399      910.825       639.52
 1400      911.158       638.68
 1401      911.491       638.32
 1402      911.824       638.34
 1403      912.157        638.9
 1404      912.489        639.7
 1405      912.822       640.02
 1406      913.154       639.74
 1407      913.486       639.22
 1408      913.818       638.34
 1409       914.15        637.1
 1410      914.482        636.2
 1411      914.814       635.84
 1412      915.146       635.74
 1413      915.477       636.26
 1414      915.809       637.44
 1415       916.14       638.54
 1416      916.471        639.3
 1417      916.802       640.12
 1418      917.133       640.66
 1419      917.464       640.88
 1420      917.795       640.64
 1421      918.125        640.4
 1422      918.456       640.36
 1423      918.786       639.98
 1424      919.116       639.52
 1425      919.446        639.5
 1426      919.776        639.5
 1427      920.106       638.96
 1428      920.436        638.2
 1429      920.766       637.36
 1430      921.095       636.66
 1431      921.425       636.18
 1432      921.754       636.12
 1433      922.083       636.84
 1434      922.412       638.12
 1435      922.741       639.12
 1436       923.07       639.76
 1437      923.399       640.14
 1438      923.727       640.16
 1439      924.056       639.62
 1440      924.384       639.26
 1441      924.713        639.2
 1442      925.041       638.86
 1443      925.369       638.54
 1444      925.697        638.8
 1445      926.024        639.2
 1446      926.352       639.44
 1447       926.68        639.3
 1448      927.007       638.86
 1449      927.334        638.4
 1450      927.662        637.9
 1451      927.989       637.58
 1452      928.316       638.54
 1453      928.643       639.98
 1454      928.969       640.86
 1455      929.296       641.24
 1456      929.622       641.28
 1457      929.949       640.68
 1458      930.275       639.82
 1459      930.601       638.96
 1460      930.927       638.28
 1461      931.253       637.72
 1462      931.579        637.9
 1463      931.905        638.1
 1464       932.23        638.4
 1465      932.556        638.6
 1466      932.881       638.66
 1467      933.206       637.96
 1468      933.531       637.68
 1469      933.856       638.18
 1470      934.181       638.88
 1471      934.506       639.12
 1472       934.83       638.94
 1473      935.155        638.8
 1474      935.479       638.38
 1475      935.803       638.12
 1476      936.128        639.1
 1477      936.452       640.46
 1478      936.775        641.1
 1479      937.099       641.36
 1480      937.423       641.66
 1481      937.746       641.46
 1482       938.07       640.78
 1483      938.393          640
 1484      938.716       638.92
 1485      939.039       637.58
 1486      939.362       636.38
 1487      939.685        635.5
 1488      940.008       635.16
 1489      940.331       635.22
 1490      940.653       635.58
 1491      940.975       636.04
 1492      941.298       637.02
 1493       941.62          638
 1494      941.942       638.84
 1495      942.264        639.6
 1496      942.585       640.16
 1497      942.907       640.26
 1498      943.229       640.24
 1499       943.55       640.42
 1500      943.871       640.26
 1501      944.192       640.58
 1502      944.513       641.02
 1503      944.834       640.98
 1504      945.155       641.18
 1505      945.476       641.64
 1506      945.796       641.14
 1507      946.117       640.48
 1508      946.437       640.42
 1509      946.757        639.8
 1510      947.078       639.14
 1511      947.398       639.16
 1512      947.717       639.32
 1513      948.037       639.34
 1514      948.357       639.48
 1515      948.676        639.3
 1516      948.996       638.86
 1517      949.315       638.42
 1518      949.634       637.88
 1519      949.953       637.52
 1520      950.272       637.62
 1521      950.591       637.66
 1522      950.909       637.52
 1523      951.228       637.58
 1524      951.546       637.72
 1525      951.865       637.44
 1526      952.183       636.92
 1527      952.501        636.8
 1528      952.819       636.96
 1529      953.137       637.04
 1530      953.454       637.52
 1531      953.772       638.26
 1532      954.089       638.92
 1533      954.407       638.64
 1534      954.724       637.66
 1535      955.041       636.62
 1536      955.358       635.94
 1537      955.675        635.2
 1538      955.992       634.94
 1539      956.308       635.24
 1540      956.625       635.98
 1541      956.941       637.02
 1542      957.257       638.18
 1543      957.574       639.48
 1544       957.89       640.26
 1545      958.206        640.1
 1546      958.521       639.12
 1547      958.837       638.02
 1548      959.152       637.12
 1549      959.468       636.96
 1550      959.783       637.34
 1551      960.098       638.22
 1552      960.413       639.12
 1553      960.728       639.54
 1554      961.043        639.7
 1555      961.358       639.66
 1556      961.672       638.94
 1557      961.987       638.12
 1558      962.301       637.52
 1559      962.615       637.64
 1560       962.93       638.12
 1561      963.244       638.52
 1562      963.557       638.56
 1563      963.871        638.8
 1564      964.185       638.54
 1565      964.498       637.92
 1566      964.812       637.68
 1567      965.125       637.88
 1568      965.438       637.44
 1569      965.751       636.64
 1570      966.064       636.26
 1571      966.377       636.14
 1572      966.689        635.8
 1573      967.002       635.84
 1574      967.314       636.62
 1575      967.626        637.6
 1576      967.939       638.32
 1577      968.251       639.38
 1578      968.563       640.62
 1579      968.874       641.12
 1580      969.186       640.78
 1581      969.498       640.18
 1582      969.809       639.32
 1583       970.12        638.3
 1584      970.431        637.6
 1585      970.743       637.34
 1586      971.053       637.08
 1587      971.364       636.66
 1588      971.675       636.48
 1589      971.986       636.74
 1590      972.296       636.92
 1591      972.606       636.94
 1592      972.917        637.3
 1593      973.227       637.94
 1594      973.537       638.12
 1595      973.847       637.78
 1596      974.156       637.68
 1597      974.466       637.74
 1598      974.775       637.42
 1599      975.085       637.18
 1600      975.394       637.28
 1601      975.703       637.44
 1602      976.012       637.24
 1603      976.321        636.7
 1604       976.63       635.96
 1605      976.938        635.7
 1606      977.247       635.58
 1607      977.555       635.62
 1608      977.863       636.18
 1609      978.172       636.92
 1610       978.48        637.1
 1611      978.787       636.62
 1612      979.095       636.56
 1613      979.403        636.3
 1614       979.71       636.32
 1615      980.018       636.82
 1616      980.325        637.7
 1617      980.632       637.78
 1618      980.939       637.66
 1619      981.246       637.34
 1620      981.553       636.94
 1621       981.86       636.68
 1622      982.166       636.68
 1623      982.473        636.8
 1624      982.779       636.96
 1625      983.085       636.94
 1626      983.391       636.88
 1627      983.697       636.82
 1628      984.003       636.92
 1629      984.309       636.86
 1630      984.614       636.78
 1631       984.92       636.98
 1632      985.225        637.5
 1633       985.53       637.96
 1634      985.835       638.42
 1635       986.14       638.72
 1636      986.445       638.82
 1637       986.75       638.88
 1638      987.054       638.86
 1639      987.359        638.6
 1640      987.663       638.62
 1641      987.967       639.18
 1642      988.271        640.1
 1643      988.575       641.24
 1644      988.879        642.2
 1645      989.183       642.56
 1646      989.487       642.52
 1647       989.79       642.14
 1648      990.093       641.62
 1649      990.397       641.24
 1650        990.7       641.18
 1651      991.003       640.82
 1652      991.306       640.34
 1653      991.608       639.34
 1654      991.911       638.48
 1655      992.213       638.18
 1656      992.516       638.26
 1657      992.818        637.9
 1658       993.12        637.6
 1659      993.422       637.38
 1660      993.724        637.1
 1661      994.026        636.5
 1662      994.327       636.04
 1663      994.629       636.02
 1664       994.93        636.1
 1665      995.232       636.26
 1666      995.533       636.92
 1667      995.834       637.94
 1668      996.135       639.16
 1669      996.435       640.18
 1670      996.736       640.44
 1671      997.036       640.14
 1672      997.337        639.6
 1673      997.637       638.56
 1674      997.937       637.58
 1675      998.237       637.18
 1676      998.537       637.04
 1677      998.837        636.8
 1678      999.137        636.9
 1679      999.436       637.52
 1680      999.735       638.26
 1681      1000.03       638.58
 1682      1000.33          639
 1683      1000.63       639.14
 1684      1000.93       638.42
 1685      1001.23        637.6
 1686      1001.53       637.58
 1687      1001.83       637.46
 1688      1002.13       637.34
 1689      1002.42       637.46
 1690      1002.72       637.52
 1691      1003.02        637.5
 1692      1003.32        637.7
 1693      1003.62       637.88
 1694      1003.91       638.14
 1695      1004.21       638.74
 1696      1004.51        639.5
 1697      1004.81       639.78
 1698       1005.1       639.78
 1699       1005.4       639.76
 1700       1005.7       639.18
 1701      1005.99       638.54
 1702      1006.29       638.66
 1703      1006.59       639.24
 1704      1006.88        639.8
 1705      1007.18       640.18
 1706      1007.48       640.02
 1707      1007.77       639.36
 1708      1008.07       638.34
 1709      1008.36       637.48
 1710      1008.66       637.54
 1711      1008.95          638
 1712      1009.25        638.6
 1713      1009.55       639.44
 1714      1009.84       639.94
 1715      1010.14       639.88
 1716      1010.43        639.6
 1717      1010.73       639.26
 1718      1011.02          639
 1719      1011.31       638.94
 1720      1011.61       638.56
 1721       1011.9       638.76
 1722       1012.2       639.86
 1723      1012.49       640.98
 1724      1012.79       641.72
 1725      1013.08        642.3
 1726      1013.37       642.26
 1727      1013.67        640.8
 1728      1013.96       639.34
 1729      1014.25       638.52
 1730      1014.55       638.18
 1731      1014.84        637.2
 1732      1015.13       636.52
 1733      1015.42        636.4
 1734      1015.72        636.3
 1735      1016.01       635.84
 1736       1016.3       636.24
 1737      1016.59        637.2
 1738      1016.89       637.92
 1739      1017.18       638.66
 1740      1017.47       639.66
 1741      1017.76       640.34
 1742      1018.05       640.64
 1743      1018.35       640.78
 1744      1018.64       640.78
 1745      1018.93        640.7
 1746      1019.22       640.56
 1747      1019.51       640.02
 1748       1019.8        639.1
 1749      1020.09       638.34
 1750      1020.38       637.66
 1751      1020.67       637.54
 1752      1020.96       638.34
 1753      1021.25       639.42
 1754      1021.54          640
 1755      1021.83        640.2
 1756      1022.12       640.02
 1757      1022.41       639.82
 1758       1022.7       639.44
 1759      1022.99       639.18
 1760      1023.28       639.28
 1761      1023.57        639.3
 1762      1023.86       639.12
 1763      1024.15       639.12
 1764      1024.44       639.32
 1765      1024.73       639.48
 1766      1025.02        639.4
 1767       1025.3       639.02
 1768      1025.59       638.96
 1769      1025.88       638.64
 1770      1026.17        638.2
 1771      1026.46       638.34
 1772      1026.74       638.84
 1773      1027.03       639.02
 1774      1027.32       639.16
 1775      1027.61       639.44
 1776      1027.89       639.64
 1777      1028.18       639.72
 1778      1028.47       640.14
 1779      1028.76       640.98
 1780      1029.04       641.68
 1781      1029.33       641.66
 1782      1029.62       641.14
 1783       1029.9       640.06
 1784      1030.19       638.96
 1785      1030.47          638
 1786      1030.76       637.46
 1787      1031.05        637.6
 1788      1031.33       638.24
 1789      1031.62       638.62
 1790       1031.9       639.04
 1791      1032.19       639.78
 1792      1032.47       640.22
 1793      1032.76       640.38
 1794      1033.04       640.68
 1795      1033.33       641.08
 1796      1033.61       640.86
 1797       1033.9       639.88
 1798      1034.18          639
 1799      1034.47       638.42
 1800      1034.75       637.24
 1801      1035.04       636.28
 1802      1035.32       636.54
 1803       1035.6       636.56
 1804      1035.89       636.32
 1805      1036.17       636.42
 1806      1036.45       636.86
 1807      1036.74       636.98
 1808      1037.02       637.08
 1809       1037.3       637.08
 1810      1037.59       637.24
 1811      1037.87       637.38
 1812      1038.15       637.24
 1813      1038.44       636.94
 1814      1038.72       636.64
 1815         1039       637.02
 1816      1039.28       637.58
 1817      1039.56        638.4
 1818      1039.85       639.32
 1819      1040.13       639.86
 1820      1040.41        639.7
 1821      1040.69       639.52
 1822      1040.97       639.38
 1823      1041.25        639.5
 1824      1041.54       639.84
 1825      1041.82       639.86
 1826       1042.1       639.72
 1827      1042.38       639.52
 1828      1042.66       638.98
 1829      1042.94       638.66
 1830      1043.22       638.94
 1831       1043.5       639.18
 1832      1043.78        639.5
 1833      1044.06       640.38
 1834      1044.34        641.3
 1835      1044.62       641.68
 1836       1044.9       641.98
 1837      1045.18       642.42
 1838      1045.46       642.42
 1839      1045.74       642.04
 1840      1046.02       641.74
 1841       1046.3        641.5
 1842      1046.58       641.18
 1843      1046.85       640.56
 1844      1047.13       639.76
 1845      1047.41       639.24
 1846      1047.69        638.9
 1847      1047.97       638.38
 1848      1048.25       638.32
 1849      1048.52       638.76
 1850       1048.8       639.16
 1851      1049.08       639.36
 1852      1049.36       639.44
 1853      1049.63       639.56
 1854      1049.91       639.96
 1855      1050.19       640.56
 1856      1050.47        641.2
 1857      1050.74       641.66
 1858      1051.02        641.7
 1859       1051.3        640.9
 1860      1051.57       640.32
 1861      1051.85       640.42
 1862      1052.13       640.92
 1863       1052.4       641.66
 1864      1052.68       642.76
 1865      1052.95       643.12
 1866      1053.23       642.66
 1867      1053.51       642.04
 1868      1053.78       641.74
 1869      1054.06       641.66
 1870      1054.33       641.78
 1871      1054.61        641.7
 1872      1054.88        641.7
 1873      1055.16       641.48
 1874      1055.43       640.84
 1875      1055.71       640.36
 1876      1055.98       640.74
 1877      1056.25       641.36
 1878      1056.53       641.56
 1879       1056.8       641.74
 1880      1057.08       641.68
 1881      1057.35       641.04
 1882      1057.62       639.94
 1883       1057.9       639.26
 1884      1058.17       639.28
 1885      1058.45       639.96
 1886      1058.72       640.62
 1887      1058.99        641.2
 1888      1059.26       641.62
 1889      1059.54       641.44
 1890      1059.81       640.14
 1891      1060.08       638.74
 1892      1060.35       638.06
 1893      1060.63       637.82
 1894       1060.9       637.68
 1895      1061.17       638.28
 1896      1061.44       639.02
 1897      1061.71       638.88
 1898      1061.99       638.72
 1899      1062.26       638.74
 1900      1062.53       638.42
 1901       1062.8       638.14
 1902      1063.07       638.58
 1903      1063.34       638.92
 1904      1063.61       638.56
 1905      1063.88       638.12
 1906      1064.15       638.24
 1907      1064.42       638.58
 1908       1064.7        638.9
 1909      1064.97       639.78
 1910      1065.24       640.84
 1911      1065.51        641.7
 1912      1065.78       642.32
 1913      1066.04        642.4
 1914      1066.31       642.02
 1915      1066.58        641.5
 1916      1066.85        640.6
 1917      1067.12       639.36
 1918      1067.39       638.58
 1919      1067.66       638.68
 1920      1067.93        638.9
 1921       1068.2       638.92
 1922      1068.47       639.26
 1923      1068.73       640.12
 1924         1069       640.62
 1925      1069.27       640.62
 1926      1069.54       640.88
 1927      1069.81       640.94
 1928      1070.07       640.22
 1929      1070.34       639.32
 1930      1070.61       639.12
 1931      1070.88       638.92
 1932      1071.14        638.8
 1933      1071.41       639.28
 1934      1071.68       640.42
 1935      1071.94        641.4
 1936      1072.21       642.04
 1937      1072.48       642.34
 1938      1072.74       642.18
 1939      1073.01       641.52
 1940      1073.28        641.1
 1941      1073.54       640.92
 1942      1073.81       641.06
 1943      1074.07       641.56
 1944      1074.34       642.18
 1945       1074.6       642.64
 1946      1074.87       643.08
 1947      1075.13       642.98
 1948       1075.4       642.48
 1949      1075.66       641.78
 1950      1075.93       641.22
 1951      1076.19       640.74
 1952      1076.46        640.1
 1953      1076.72       639.92
 1954      1076.99       640.28
 1955      1077.25       640.32
 1956      1077.52       640.34
 1957      1077.78       640.84
 1958      1078.04       640.94
 1959      1078.31       640.74
 1960      1078.57       640.78
 1961      1078.83        640.8
 1962       1079.1        640.9
 1963      1079.36       640.74
 1964      1079.62       640.48
 1965      1079.89       640.38
 1966      1080.15       640.04
 1967      1080.41       639.62
 1968      1080.67        639.7
 1969      1080.94       639.72
 1970       1081.2       639.08
 1971      1081.46       638.24
 1972      1081.72       637.44
 1973      1081.98       637.24
 1974      1082.24        637.3
 1975      1082.51       637.68
 1976      1082.77       638.48
 1977      1083.03       639.08
 1978      1083.29        638.8
 1979      1083.55       638.48
 1980      1083.81        638.3
 1981      1084.07       637.96
 1982      1084.33       637.88
 1983      1084.59       638.08
 1984      1084.85       638.12
 1985      1085.11       637.88
 1986      1085.37        637.9
 1987      1085.63       638.06
 1988      1085.89       638.64
 1989      1086.15       639.18
 1990      1086.41       639.98
 1991      1086.67       640.58
 1992      1086.93       640.58
 1993      1087.19       640.18
 1994      1087.45       640.18
 1995      1087.71       639.78
 1996      1087.97        639.4
 1997      1088.23       639.64
 1998      1088.48       639.72
 1999      1088.74       638.94
 2000         1089       638.38
 2001      1089.26       638.42
 2002      1089.52        638.3
 2003      1089.77       637.54
 2004      1090.03       637.12
 2005      1090.29       637.16
 2006      1090.55       637.04
 2007       1090.8        637.5
 2008      1091.06       638.86
 2009      1091.32       640.66
 2010      1091.57       641.92
 2011      1091.83       642.48
 2012      1092.09       642.44
 2013      1092.34       642.48
 2014       1092.6       642.64
 2015      1092.86       642.52
 2016      1093.11       642.48
 2017      1093.37       642.44
 2018      1093.62       641.72
 2019      1093.88        640.5
 2020      1094.13       640.26
 2021      1094.39       640.24
 2022      1094.65       640.34
 2023       1094.9          641
 2024      1095.16        641.9
 2025      1095.41       641.76
 2026      1095.66       641.14
 2027      1095.92       640.44
 2028      1096.17       639.16
 2029      1096.43       637.54
 2030      1096.68       636.44
 2031      1096.94       636.14
 2032      1097.19       636.28
 2033      1097.44       636.68
 2034       1097.7       636.82
 2035      1097.95       637.16
 2036       1098.2       637.44
 2037      1098.46       637.06
 2038      1098.71       637.04
 2039      1098.96        637.9
 2040      1099.22       638.42
 2041      1099.47        638.4
 2042      1099.72       638.86
 2043      1099.97        639.4
 2044      1100.23        639.8
 2045      1100.48       641.08
 2046      1100.73      641.925
 2047      1100.98      642.867
