scansci Spectrometer Data File
--- Measurement Setting ---
Type: Sample Spectrum
Date: Mon Oct 16 16:22:09 2023
User: (Reserved by scansci)
Serial: (Reserved by scansci)
Channel: No. 11
Integration Time: 1
Average: 10
Boxcar: 2
Electrical Dark: No-corrected
Time Normalize: (Reserved by scansci)
Dual-beam: (Reserved by scansci)
Reference Ch: (Reserved by scansci)
--- Measurement Data ---
Pixel   Wavelength   Intensity
    0        162.5      620.767
    1      162.985      620.175
    2      163.469        619.7
    3      163.954        619.8
    4      164.439       619.12
    5      164.923        618.1
    6      165.408        617.9
    7      165.892       618.44
    8      166.377       618.82
    9      166.861       619.12
   10      167.345       619.38
   11       167.83        619.5
   12      168.314       618.66
   13      168.798        617.5
   14      169.282       616.88
   15      169.766       617.22
   16       170.25       617.16
   17      170.734       617.24
   18      171.218       617.52
   19      171.702       617.64
   20      172.185       617.08
   21      172.669       616.94
   22      173.153        616.8
   23      173.636       616.56
   24       174.12       616.18
   25      174.603       615.92
   26      175.087       615.86
   27       175.57       615.54
   28      176.053       614.68
   29      176.537       613.64
   30       177.02        612.7
   31      177.503        612.1
   32      177.986       612.26
   33      178.469       613.34
   34      178.952       615.18
   35      179.435       617.04
   36      179.918       618.38
   37      180.401       619.14
   38      180.884        619.3
   39      181.366       618.94
   40      181.849       618.42
   41      182.332       617.54
   42      182.814       616.74
   43      183.297       616.62
   44      183.779       616.84
   45      184.262        616.8
   46      184.744       616.76
   47      185.226        616.8
   48      185.708       616.52
   49      186.191       615.98
   50      186.673        615.6
   51      187.155       615.76
   52      187.637       615.82
   53      188.119        616.2
   54        188.6       616.94
   55      189.082        617.6
   56      189.564       617.58
   57      190.046        617.1
   58      190.527       616.34
   59      191.009       615.52
   60      191.491        614.9
   61      191.972       614.88
   62      192.454       615.96
   63      192.935       617.18
   64      193.416       617.54
   65      193.897       617.54
   66      194.379       617.64
   67       194.86       617.82
   68      195.341       617.66
   69      195.822       617.74
   70      196.303       617.84
   71      196.784       617.74
   72      197.265        617.2
   73      197.746       616.72
   74      198.226       616.74
   75      198.707       617.04
   76      199.188       617.32
   77      199.668        617.8
   78      200.149       618.52
   79      200.629       619.08
   80       201.11       619.62
   81       201.59       619.96
   82       202.07       619.88
   83       202.55       619.76
   84      203.031       619.62
   85      203.511       619.18
   86      203.991       619.12
   87      204.471       619.42
   88      204.951        619.1
   89      205.431        617.9
   90       205.91       617.16
   91       206.39       616.58
   92       206.87       615.64
   93      207.349        615.2
   94      207.829       615.66
   95      208.309        616.4
   96      208.788        617.1
   97      209.267       617.92
   98      209.747       618.66
   99      210.226       619.38
  100      210.705        619.4
  101      211.185        618.9
  102      211.664       618.26
  103      212.143        617.8
  104      212.622       617.28
  105      213.101       616.64
  106      213.579       616.12
  107      214.058        616.1
  108      214.537       616.42
  109      215.016       616.76
  110      215.494        617.3
  111      215.973        617.5
  112      216.452        616.8
  113       216.93       615.86
  114      217.408        615.2
  115      217.887       614.84
  116      218.365          615
  117      218.843       615.96
  118      219.321       616.82
  119      219.799       617.06
  120      220.278       616.94
  121      220.755       616.62
  122      221.233        616.2
  123      221.711       615.86
  124      222.189       615.78
  125      222.667       616.02
  126      223.144       616.66
  127      223.622       617.68
  128        224.1       618.56
  129      224.577        619.3
  130      225.055       620.06
  131      225.532          621
  132      226.009       621.32
  133      226.486       620.68
  134      226.964       620.06
  135      227.441       619.78
  136      227.918       619.18
  137      228.395       618.14
  138      228.872       617.78
  139      229.349        617.4
  140      229.826       616.56
  141      230.302        615.3
  142      230.779        614.5
  143      231.256       614.26
  144      231.732        613.7
  145      232.209        612.8
  146      232.685       612.24
  147      233.162       612.04
  148      233.638       611.94
  149      234.114       612.76
  150       234.59       614.34
  151      235.066       615.98
  152      235.543       617.38
  153      236.019       618.32
  154      236.495       618.42
  155       236.97       618.28
  156      237.446       618.18
  157      237.922       618.02
  158      238.398        617.7
  159      238.873       618.04
  160      239.349       618.76
  161      239.824        619.4
  162        240.3        619.7
  163      240.775       620.06
  164      241.251       620.06
  165      241.726       619.54
  166      242.201       618.36
  167      242.676        617.2
  168      243.151        616.6
  169      243.626        616.1
  170      244.101       615.12
  171      244.576       614.58
  172      245.051       614.52
  173      245.526       614.54
  174          246       615.14
  175      246.475       615.94
  176       246.95       616.62
  177      247.424       617.12
  178      247.899        616.9
  179      248.373       615.98
  180      248.847       615.56
  181      249.321       615.76
  182      249.796       616.02
  183       250.27       616.32
  184      250.744        616.3
  185      251.218       616.24
  186      251.692       616.26
  187      252.166       615.68
  188      252.639       614.84
  189      253.113       614.22
  190      253.587       613.92
  191       254.06       613.78
  192      254.534       614.08
  193      255.007       614.58
  194      255.481       615.38
  195      255.954        615.8
  196      256.427       615.94
  197      256.901       616.36
  198      257.374       616.94
  199      257.847       617.18
  200       258.32       616.92
  201      258.793       616.22
  202      259.266       615.42
  203      259.739        614.9
  204      260.211       614.68
  205      260.684        614.6
  206      261.157       614.74
  207      261.629       614.86
  208      262.102       614.64
  209      262.574       614.76
  210      263.046        615.2
  211      263.519       615.18
  212      263.991       615.16
  213      264.463       615.36
  214      264.935       615.12
  215      265.407        615.1
  216      265.879       615.08
  217      266.351       615.04
  218      266.823       615.22
  219      267.295       615.34
  220      267.766       615.02
  221      268.238        615.2
  222       268.71       615.36
  223      269.181        615.4
  224      269.653       615.24
  225      270.124       615.16
  226      270.595       615.02
  227      271.066        614.7
  228      271.538        614.7
  229      272.009       615.52
  230       272.48       616.58
  231      272.951       617.36
  232      273.422       618.14
  233      273.892       618.08
  234      274.363       617.64
  235      274.834       617.06
  236      275.305       616.54
  237      275.775        616.4
  238      276.246       616.64
  239      276.716       616.58
  240      277.186       616.22
  241      277.657       615.92
  242      278.127        615.7
  243      278.597       615.94
  244      279.067       616.38
  245      279.537       616.68
  246      280.007       616.28
  247      280.477        615.6
  248      280.947       614.68
  249      281.417        613.8
  250      281.886       613.46
  251      282.356        614.2
  252      282.825        615.3
  253      283.295        616.4
  254      283.764       617.54
  255      284.234       618.44
  256      284.703       618.94
  257      285.172       618.72
  258      285.641       618.02
  259       286.11          617
  260      286.579       615.78
  261      287.048       614.76
  262      287.517       614.08
  263      287.986       613.48
  264      288.454       613.16
  265      288.923       613.24
  266      289.392          613
  267       289.86       612.84
  268      290.329        612.8
  269      290.797       612.76
  270      291.265       612.88
  271      291.734       613.54
  272      292.202       614.28
  273       292.67        614.7
  274      293.138       614.76
  275      293.606       614.52
  276      294.074       613.78
  277      294.541       613.02
  278      295.009        612.6
  279      295.477        612.4
  280      295.944       612.42
  281      296.412        612.7
  282      296.879       613.02
  283      297.347       613.32
  284      297.814       613.36
  285      298.281        612.8
  286      298.749       612.22
  287      299.216       612.04
  288      299.683       612.58
  289       300.15       613.66
  290      300.616       614.78
  291      301.083       615.82
  292       301.55       616.66
  293      302.017       617.16
  294      302.483       617.16
  295       302.95       617.18
  296      303.416       617.42
  297      303.883       617.24
  298      304.349       616.48
  299      304.815       616.48
  300      305.281       617.16
  301      305.748        617.4
  302      306.214       617.16
  303       306.68       616.78
  304      307.146          616
  305      307.611       615.46
  306      308.077       615.24
  307      308.543       615.34
  308      309.008       615.58
  309      309.474       615.64
  310      309.939       615.08
  311      310.405       614.72
  312       310.87       614.98
  313      311.335        615.2
  314        311.8       615.46
  315      312.266       616.24
  316      312.731        616.7
  317      313.196        616.6
  318       313.66       616.38
  319      314.125          616
  320       314.59       615.46
  321      315.055       614.74
  322      315.519       614.22
  323      315.984       614.68
  324      316.448       615.72
  325      316.913       616.86
  326      317.377       618.08
  327      317.841       619.02
  328      318.305       619.28
  329      318.769       619.48
  330      319.233       619.48
  331      319.697        619.5
  332      320.161       619.44
  333      320.625       618.62
  334      321.089       617.66
  335      321.552       617.02
  336      322.016       616.68
  337      322.479       616.58
  338      322.943       617.14
  339      323.406       617.64
  340      323.869       617.48
  341      324.333       616.82
  342      324.796       616.12
  343      325.259        615.3
  344      325.722       614.64
  345      326.185       614.94
  346      326.647       615.72
  347       327.11       616.12
  348      327.573       616.56
  349      328.035        616.6
  350      328.498       615.46
  351       328.96       614.26
  352      329.423       613.86
  353      329.885        613.9
  354      330.347       614.52
  355       330.81       615.54
  356      331.272       616.18
  357      331.734       616.58
  358      332.196       616.82
  359      332.657       616.38
  360      333.119       615.96
  361      333.581       615.66
  362      334.043        615.3
  363      334.504       614.88
  364      334.966       614.62
  365      335.427        614.4
  366      335.888       614.52
  367       336.35       615.12
  368      336.811       615.96
  369      337.272       616.86
  370      337.733       617.14
  371      338.194       616.74
  372      338.655        615.8
  373      339.115        614.6
  374      339.576        613.6
  375      340.037        613.2
  376      340.497       613.42
  377      340.958       613.96
  378      341.418        614.6
  379      341.879       615.24
  380      342.339       616.16
  381      342.799        617.1
  382      343.259       617.94
  383      343.719       618.78
  384      344.179        619.2
  385      344.639       619.16
  386      345.099          619
  387      345.559       618.34
  388      346.018       617.18
  389      346.478       616.28
  390      346.937       615.54
  391      347.397       615.18
  392      347.856        615.2
  393      348.315        615.4
  394      348.774       615.36
  395      349.234        615.1
  396      349.693       614.86
  397      350.152       614.98
  398       350.61       615.14
  399      351.069        615.3
  400      351.528       615.24
  401      351.987       614.78
  402      352.445        614.7
  403      352.904       614.92
  404      353.362       615.16
  405       353.82       615.64
  406      354.279       616.48
  407      354.737        617.2
  408      355.195       617.84
  409      355.653       618.54
  410      356.111       619.38
  411      356.569       619.66
  412      357.027       619.22
  413      357.484       618.76
  414      357.942       617.94
  415      358.399       616.84
  416      358.857       616.06
  417      359.314       615.54
  418      359.772       615.24
  419      360.229       615.92
  420      360.686          617
  421      361.143       617.48
  422        361.6       617.28
  423      362.057       616.66
  424      362.514       615.44
  425      362.971       614.38
  426      363.427       613.92
  427      363.884       613.82
  428       364.34          614
  429      364.797       614.38
  430      365.253       614.64
  431      365.709       615.16
  432      366.166       616.38
  433      366.622       617.38
  434      367.078       617.52
  435      367.534       617.58
  436       367.99       617.46
  437      368.445       616.62
  438      368.901       616.04
  439      369.357       616.16
  440      369.812       616.18
  441      370.268        616.3
  442      370.723       616.54
  443      371.179        616.6
  444      371.634       616.34
  445      372.089        616.4
  446      372.544       616.16
  447      372.999       615.04
  448      373.454       613.98
  449      373.909       613.88
  450      374.364       613.62
  451      374.818        613.3
  452      375.273        614.1
  453      375.727       614.84
  454      376.182       614.48
  455      376.636       614.18
  456       377.09       613.98
  457      377.545       613.44
  458      377.999       612.98
  459      378.453       613.04
  460      378.907        613.2
  461      379.361       613.36
  462      379.814       613.48
  463      380.268        614.3
  464      380.722       615.72
  465      381.175       616.22
  466      381.629       615.86
  467      382.082        615.5
  468      382.535       614.78
  469      382.989       613.94
  470      383.442       613.66
  471      383.895       614.02
  472      384.348       614.96
  473      384.801        615.4
  474      385.253       615.14
  475      385.706       615.38
  476      386.159       615.92
  477      386.611       615.82
  478      387.064       615.76
  479      387.516       615.56
  480      387.968        614.5
  481      388.421       613.32
  482      388.873       612.46
  483      389.325       612.06
  484      389.777       612.24
  485      390.229       612.96
  486      390.681       613.86
  487      391.132       614.86
  488      391.584       615.72
  489      392.035        615.9
  490      392.487       615.54
  491      392.938       615.32
  492       393.39       615.26
  493      393.841       615.24
  494      394.292       615.74
  495      394.743       616.46
  496      395.194        616.7
  497      395.645        616.8
  498      396.096       616.72
  499      396.546       616.36
  500      396.997       615.98
  501      397.448       615.84
  502      397.898       615.24
  503      398.349       614.92
  504      398.799       615.24
  505      399.249       615.58
  506      399.699       615.94
  507      400.149        616.6
  508      400.599       616.74
  509      401.049       616.28
  510      401.499       616.16
  511      401.949       616.18
  512      402.398       616.36
  513      402.848       616.44
  514      403.297       615.94
  515      403.747       615.18
  516      404.196       614.28
  517      404.645       613.38
  518      405.094        612.7
  519      405.543       612.72
  520      405.992          613
  521      406.441       613.44
  522       406.89       613.98
  523      407.339        614.8
  524      407.787       615.58
  525      408.236       616.18
  526      408.684       616.76
  527      409.132       616.88
  528      409.581       616.68
  529      410.029       616.66
  530      410.477       616.58
  531      410.925       616.68
  532      411.373       617.06
  533      411.821       617.72
  534      412.269        618.6
  535      412.716       619.08
  536      413.164       619.44
  537      413.611       619.86
  538      414.059       619.64
  539      414.506       618.64
  540      414.953       618.06
  541        415.4       617.36
  542      415.847        616.2
  543      416.294       615.48
  544      416.741       615.38
  545      417.188       615.36
  546      417.635       615.12
  547      418.081       615.32
  548      418.528        615.7
  549      418.974       616.08
  550      419.421       616.46
  551      419.867       616.72
  552      420.313       616.56
  553      420.759        615.9
  554      421.205       614.94
  555      421.651        614.2
  556      422.097       613.96
  557      422.543       614.32
  558      422.989       615.24
  559      423.434        616.3
  560       423.88       616.88
  561      424.325        617.1
  562       424.77        617.2
  563      425.216       617.48
  564      425.661       617.62
  565      426.106          618
  566      426.551       618.36
  567      426.996       618.42
  568       427.44       618.58
  569      427.885       619.24
  570       428.33        619.6
  571      428.774       619.84
  572      429.219       620.14
  573      429.663        619.7
  574      430.107          619
  575      430.551       618.62
  576      430.996       618.12
  577       431.44        617.5
  578      431.883       617.32
  579      432.327       617.42
  580      432.771        617.5
  581      433.215       617.96
  582      433.658       618.56
  583      434.102       619.18
  584      434.545       619.04
  585      434.988       618.54
  586      435.431       617.76
  587      435.875       617.02
  588      436.318       615.66
  589      436.761       614.66
  590      437.203       614.68
  591      437.646       614.76
  592      438.089       614.28
  593      438.531       614.26
  594      438.974       614.34
  595      439.416        613.7
  596      439.859       613.12
  597      440.301        613.6
  598      440.743        613.8
  599      441.185       613.64
  600      441.627       613.92
  601      442.069        614.8
  602       442.51       615.42
  603      442.952        616.6
  604      443.394          618
  605      443.835       618.66
  606      444.277       618.66
  607      444.718       618.58
  608      445.159       618.46
  609        445.6        618.4
  610      446.041       618.76
  611      446.482       618.98
  612      446.923       618.24
  613      447.364       617.22
  614      447.804       616.38
  615      448.245       615.38
  616      448.685        614.8
  617      449.126       615.06
  618      449.566       615.84
  619      450.006       616.62
  620      450.447       616.96
  621      450.887       616.94
  622      451.326       617.02
  623      451.766       616.72
  624      452.206       616.14
  625      452.646       616.04
  626      453.085       615.68
  627      453.525       614.84
  628      453.964       613.82
  629      454.403       613.08
  630      454.843       612.56
  631      455.282       612.48
  632      455.721        612.9
  633       456.16       613.84
  634      456.599       614.62
  635      457.037       615.14
  636      457.476       615.44
  637      457.915       615.04
  638      458.353       613.96
  639      458.791       612.94
  640       459.23       612.14
  641      459.668        611.9
  642      460.106       612.72
  643      460.544       614.02
  644      460.982       615.14
  645       461.42       615.56
  646      461.857       615.64
  647      462.295       615.54
  648      462.733       615.34
  649       463.17       615.28
  650      463.607       615.58
  651      464.045       616.08
  652      464.482       616.08
  653      464.919        615.7
  654      465.356       615.32
  655      465.793       615.04
  656       466.23       614.44
  657      466.666        613.9
  658      467.103       613.58
  659      467.539       613.38
  660      467.976       613.86
  661      468.412       614.94
  662      468.848       616.36
  663      469.284       617.88
  664       469.72       618.94
  665      470.156       619.02
  666      470.592       618.48
  667      471.028       617.32
  668      471.464       615.28
  669      471.899       613.56
  670      472.335       612.42
  671       472.77       611.78
  672      473.205       611.96
  673      473.641       612.72
  674      474.076        612.7
  675      474.511       612.54
  676      474.946       612.58
  677       475.38       612.68
  678      475.815       612.92
  679       476.25       613.72
  680      476.684       614.92
  681      477.119       615.74
  682      477.553       615.46
  683      477.987       615.36
  684      478.421        616.1
  685      478.856       616.72
  686      479.289       616.92
  687      479.723        617.7
  688      480.157       618.66
  689      480.591       619.36
  690      481.024       619.72
  691      481.458       619.52
  692      481.891       618.72
  693      482.324       617.76
  694      482.758       616.54
  695      483.191        615.3
  696      483.624       614.96
  697      484.057       615.08
  698      484.489       614.78
  699      484.922       614.68
  700      485.355       614.82
  701      485.787        614.6
  702       486.22        614.7
  703      486.652       615.58
  704      487.084       616.02
  705      487.516       615.96
  706      487.948       615.98
  707       488.38       616.18
  708      488.812          616
  709      489.244       615.92
  710      489.676       616.12
  711      490.107       616.46
  712      490.539       616.22
  713       490.97       615.82
  714      491.401       615.28
  715      491.832        614.9
  716      492.263       615.04
  717      492.694       615.78
  718      493.125       616.74
  719      493.556       617.82
  720      493.987       618.34
  721      494.417       617.72
  722      494.848       616.56
  723      495.278       615.26
  724      495.708       614.26
  725      496.139       613.88
  726      496.569        614.3
  727      496.999       614.74
  728      497.429       615.14
  729      497.858       615.56
  730      498.288       615.32
  731      498.718       614.64
  732      499.147       614.12
  733      499.577       613.74
  734      500.006       613.12
  735      500.435        613.3
  736      500.864        614.4
  737      501.293       615.84
  738      501.722       616.72
  739      502.151       617.02
  740       502.58        616.8
  741      503.008        616.3
  742      503.437        615.8
  743      503.865          616
  744      504.293        616.7
  745      504.722       617.28
  746       505.15       617.44
  747      505.578       616.74
  748      506.006       615.94
  749      506.434        615.9
  750      506.861       615.82
  751      507.289       615.34
  752      507.716       615.48
  753      508.144       615.66
  754      508.571       615.28
  755      508.998       615.72
  756      509.425       617.06
  757      509.852       618.08
  758      510.279       618.64
  759      510.706       618.88
  760      511.133       619.02
  761       511.56       618.86
  762      511.986       618.74
  763      512.412       618.52
  764      512.839       618.42
  765      513.265       618.22
  766      513.691          618
  767      514.117       617.76
  768      514.543       617.74
  769      514.969       617.78
  770      515.395        617.6
  771       515.82        617.5
  772      516.246       617.56
  773      516.671        617.7
  774      517.096        618.2
  775      517.522       618.52
  776      517.947        618.3
  777      518.372       617.88
  778      518.797       616.94
  779      519.222       615.52
  780      519.646       614.58
  781      520.071       614.24
  782      520.495       614.02
  783       520.92       614.48
  784      521.344       615.32
  785      521.768       615.78
  786      522.192       615.82
  787      522.616          616
  788       523.04        616.3
  789      523.464       616.18
  790      523.888        616.1
  791      524.311       616.38
  792      524.735       616.44
  793      525.158       616.58
  794      525.581       616.84
  795      526.005       616.92
  796      526.428        616.8
  797      526.851       617.22
  798      527.274       617.84
  799      527.696       618.18
  800      528.119       618.02
  801      528.542       617.24
  802      528.964       615.78
  803      529.386       613.96
  804      529.809       613.08
  805      530.231       612.98
  806      530.653       613.26
  807      531.075       614.02
  808      531.497       614.52
  809      531.918       614.58
  810       532.34       614.58
  811      532.761       614.82
  812      533.183        614.9
  813      533.604       615.54
  814      534.025        616.6
  815      534.447       617.56
  816      534.868       618.36
  817      535.289       619.54
  818      535.709       620.52
  819       536.13        620.3
  820      536.551       619.56
  821      536.971       619.16
  822      537.392        618.5
  823      537.812       617.06
  824      538.232       615.84
  825      538.652       615.14
  826      539.072       614.14
  827      539.492        613.1
  828      539.912       612.68
  829      540.331        612.9
  830      540.751       613.56
  831       541.17        614.7
  832       541.59       615.72
  833      542.009       616.22
  834      542.428        616.3
  835      542.847       616.04
  836      543.266       615.66
  837      543.685        615.6
  838      544.104        615.7
  839      544.522       615.54
  840      544.941       615.32
  841      545.359       615.32
  842      545.778       615.12
  843      546.196        615.2
  844      546.614          616
  845      547.032       617.06
  846       547.45       617.84
  847      547.867       618.16
  848      548.285       618.12
  849      548.703       617.78
  850       549.12       617.24
  851      549.538       617.02
  852      549.955       617.04
  853      550.372        617.3
  854      550.789        618.1
  855      551.206       618.92
  856      551.623        619.4
  857      552.039       619.98
  858      552.456        620.1
  859      552.873        619.5
  860      553.289       618.58
  861      553.705       617.82
  862      554.121       617.72
  863      554.537        618.2
  864      554.953       618.36
  865      555.369       618.24
  866      555.785       617.34
  867      556.201       615.86
  868      556.616       614.42
  869      557.032       613.38
  870      557.447       612.72
  871      557.862        612.7
  872      558.277       613.12
  873      558.692       613.64
  874      559.107       614.22
  875      559.522       615.46
  876      559.937       616.42
  877      560.351       616.68
  878      560.766       616.84
  879       561.18       616.86
  880      561.595       616.04
  881      562.009       615.16
  882      562.423       614.58
  883      562.837        613.9
  884       563.25       613.74
  885      563.664       614.08
  886      564.078       614.44
  887      564.491        614.8
  888      564.905       615.22
  889      565.318        615.3
  890      565.731       615.44
  891      566.144       615.64
  892      566.557       615.54
  893       566.97       615.42
  894      567.383       615.92
  895      567.795       616.62
  896      568.208       617.48
  897       568.62       619.02
  898      569.033       620.08
  899      569.445       620.06
  900      569.857       619.26
  901      570.269        618.1
  902      570.681       616.68
  903      571.093       615.72
  904      571.504        615.4
  905      571.916        615.7
  906      572.327       615.88
  907      572.739       615.78
  908       573.15       616.38
  909      573.561       617.16
  910      573.972       617.52
  911      574.383       617.68
  912      574.794       617.62
  913      575.204       616.74
  914      575.615       615.48
  915      576.025       614.28
  916      576.436       614.12
  917      576.846       614.42
  918      577.256       614.36
  919      577.666       614.16
  920      578.076       614.58
  921      578.486       615.06
  922      578.896       615.42
  923      579.305       616.38
  924      579.715       617.24
  925      580.124       617.48
  926      580.533       617.12
  927      580.942       617.22
  928      581.351       617.74
  929       581.76       618.24
  930      582.169       618.46
  931      582.578       618.48
  932      582.986       618.08
  933      583.395       617.04
  934      583.803        616.5
  935      584.212       616.78
  936       584.62       617.22
  937      585.028       617.54
  938      585.436       618.16
  939      585.843        618.6
  940      586.251       618.48
  941      586.659       618.32
  942      587.066       617.92
  943      587.474       616.96
  944      587.881       615.82
  945      588.288       614.82
  946      588.695       613.92
  947      589.102       613.58
  948      589.509       613.78
  949      589.915       614.04
  950      590.322       614.68
  951      590.728       615.66
  952      591.135        616.6
  953      591.541       617.74
  954      591.947       618.64
  955      592.353          619
  956      592.759       618.88
  957      593.165        618.4
  958      593.571       617.88
  959      593.976        617.5
  960      594.382       616.92
  961      594.787        616.3
  962      595.192       616.12
  963      595.597       615.54
  964      596.002       614.98
  965      596.407       615.18
  966      596.812       615.56
  967      597.217       615.64
  968      597.621        616.2
  969      598.026       617.36
  970       598.43       618.02
  971      598.834       618.44
  972      599.238        619.1
  973      599.642       619.04
  974      600.046        618.6
  975       600.45       618.34
  976      600.854        618.4
  977      601.257       618.18
  978      601.661       618.04
  979      602.064       617.88
  980      602.467       617.34
  981       602.87       616.48
  982      603.273       615.84
  983      603.676       615.92
  984      604.079       615.96
  985      604.481       615.98
  986      604.884       616.38
  987      605.286       616.48
  988      605.689        616.7
  989      606.091       617.44
  990      606.493        617.9
  991      606.895       618.38
  992      607.297       618.96
  993      607.698       618.72
  994        608.1       617.76
  995      608.501        617.1
  996      608.903       616.84
  997      609.304       616.62
  998      609.705       616.72
  999      610.106       617.44
 1000      610.507       618.44
 1001      610.908          619
 1002      611.308        619.1
 1003      611.709       618.78
 1004      612.109       617.76
 1005       612.51        616.7
 1006       612.91        615.6
 1007       613.31       614.86
 1008       613.71       614.32
 1009       614.11       614.28
 1010       614.51       615.18
 1011      614.909       616.38
 1012      615.309        617.5
 1013      615.708       618.42
 1014      616.108       619.28
 1015      616.507       619.64
 1016      616.906       619.54
 1017      617.305        619.5
 1018      617.704       619.54
 1019      618.102       619.14
 1020      618.501        618.2
 1021      618.899        617.3
 1022      619.298       616.52
 1023      619.696       616.02
 1024      620.094        615.4
 1025      620.492       614.68
 1026       620.89       614.66
 1027      621.288       615.16
 1028      621.686       615.46
 1029      622.083       616.08
 1030       622.48        616.9
 1031      622.878       617.48
 1032      623.275        617.7
 1033      623.672       618.14
 1034      624.069        618.5
 1035      624.466       618.42
 1036      624.863       618.08
 1037      625.259        617.7
 1038      625.656       617.38
 1039      626.052       617.34
 1040      626.448       617.54
 1041      626.844       617.68
 1042      627.241       617.52
 1043      627.636       617.26
 1044      628.032        616.5
 1045      628.428       616.24
 1046      628.823       616.52
 1047      629.219        616.9
 1048      629.614       617.42
 1049      630.009       618.34
 1050      630.404       619.02
 1051      630.799        618.9
 1052      631.194       618.66
 1053      631.589       618.44
 1054      631.984       617.82
 1055      632.378       617.16
 1056      632.772        617.1
 1057      633.167       616.74
 1058      633.561       615.78
 1059      633.955        615.4
 1060      634.349        615.4
 1061      634.743        615.4
 1062      635.136        615.9
 1063       635.53       616.86
 1064      635.923       618.02
 1065      636.316       618.86
 1066       636.71       618.94
 1067      637.103       618.64
 1068      637.496       618.38
 1069      637.888        617.7
 1070      638.281       616.64
 1071      638.674       615.76
 1072      639.066       615.84
 1073      639.459       616.16
 1074      639.851       616.68
 1075      640.243       617.74
 1076      640.635       619.14
 1077      641.027       619.98
 1078      641.419       620.48
 1079       641.81       620.74
 1080      642.202       621.02
 1081      642.593       621.08
 1082      642.984       621.18
 1083      643.375       621.34
 1084      643.766        620.8
 1085      644.157       619.72
 1086      644.548       618.84
 1087      644.939       617.92
 1088      645.329       616.86
 1089       645.72          616
 1090       646.11       615.38
 1091        646.5       614.74
 1092       646.89       614.18
 1093       647.28        613.9
 1094       647.67        614.7
 1095       648.06       615.68
 1096      648.449        616.3
 1097      648.839        616.6
 1098      649.228       617.16
 1099      649.617       617.24
 1100      650.007       617.48
 1101      650.396       618.26
 1102      650.784       618.96
 1103      651.173        618.7
 1104      651.562       617.94
 1105       651.95       616.64
 1106      652.339       614.72
 1107      652.727       612.84
 1108      653.115       611.96
 1109      653.503       612.22
 1110      653.891       613.12
 1111      654.279       614.34
 1112      654.666        616.1
 1113      655.054       617.84
 1114      655.441       618.56
 1115      655.828       618.98
 1116      656.216       619.66
 1117      656.603       619.92
 1118      656.989       619.28
 1119      657.376       618.58
 1120      657.763       617.36
 1121      658.149       615.88
 1122      658.536          615
 1123      658.922        614.9
 1124      659.308       614.86
 1125      659.694       615.42
 1126       660.08       616.44
 1127      660.466       617.28
 1128      660.852        617.6
 1129      661.237       617.96
 1130      661.623        618.1
 1131      662.008       618.42
 1132      662.393       618.86
 1133      662.778       619.16
 1134      663.163       619.06
 1135      663.548       618.64
 1136      663.933       617.64
 1137      664.317       616.48
 1138      664.702       615.56
 1139      665.086       615.06
 1140       665.47       615.18
 1141      665.854        615.8
 1142      666.238       616.16
 1143      666.622       616.72
 1144      667.006       617.52
 1145      667.389       617.84
 1146      667.773       617.56
 1147      668.156       616.86
 1148      668.539       615.92
 1149      668.923       615.72
 1150      669.305       616.04
 1151      669.688       616.26
 1152      670.071       616.64
 1153      670.454        617.4
 1154      670.836        617.7
 1155      671.218        617.1
 1156      671.601       616.34
 1157      671.983       615.68
 1158      672.365       614.42
 1159      672.747       613.32
 1160      673.128       613.08
 1161       673.51       613.32
 1162      673.891       614.32
 1163      674.273       616.06
 1164      674.654       617.28
 1165      675.035       618.08
 1166      675.416       618.52
 1167      675.797       618.46
 1168      676.177       617.74
 1169      676.558        616.9
 1170      676.938       616.38
 1171      677.319       616.14
 1172      677.699       615.72
 1173      678.079        615.3
 1174      678.459       615.04
 1175      678.839       614.86
 1176      679.219       614.52
 1177      679.598       614.52
 1178      679.978       615.12
 1179      680.357        615.4
 1180      680.736       615.44
 1181      681.115       616.16
 1182      681.494       616.38
 1183      681.873        616.3
 1184      682.252       616.86
 1185       682.63       617.28
 1186      683.009       617.12
 1187      683.387       617.44
 1188      683.765          618
 1189      684.143       618.08
 1190      684.521       618.56
 1191      684.899       619.04
 1192      685.277       618.86
 1193      685.654       618.64
 1194      686.032       618.44
 1195      686.409       617.92
 1196      686.786       617.34
 1197      687.163       617.42
 1198       687.54       617.66
 1199      687.917       618.36
 1200      688.294       618.96
 1201       688.67       618.98
 1202      689.046        618.4
 1203      689.423       617.36
 1204      689.799       616.06
 1205      690.175       615.24
 1206      690.551       615.96
 1207      690.927       617.56
 1208      691.302          619
 1209      691.678       620.26
 1210      692.053        621.1
 1211      692.428       620.82
 1212      692.804       620.04
 1213      693.179       619.62
 1214      693.553       618.84
 1215      693.928       617.96
 1216      694.303        617.7
 1217      694.677       617.26
 1218      695.052       616.12
 1219      695.426       615.46
 1220        695.8       615.18
 1221      696.174        614.6
 1222      696.548        614.1
 1223      696.921       614.12
 1224      697.295       614.32
 1225      697.669       614.62
 1226      698.042       615.22
 1227      698.415        616.2
 1228      698.788       617.14
 1229      699.161        617.9
 1230      699.534        618.5
 1231      699.907       618.92
 1232      700.279       618.66
 1233      700.652       618.04
 1234      701.024       617.54
 1235      701.396       616.78
 1236      701.768       615.68
 1237       702.14       615.08
 1238      702.512        615.2
 1239      702.883       615.18
 1240      703.255       615.66
 1241      703.626        616.3
 1242      703.998       616.58
 1243      704.369        616.8
 1244       704.74          617
 1245      705.111       616.52
 1246      705.481       615.98
 1247      705.852       615.82
 1248      706.222       615.68
 1249      706.593        615.9
 1250      706.963       616.48
 1251      707.333       617.06
 1252      707.703       617.78
 1253      708.073       618.22
 1254      708.442        618.5
 1255      708.812       618.78
 1256      709.181          619
 1257      709.551       619.24
 1258       709.92       619.56
 1259      710.289       618.86
 1260      710.658       617.74
 1261      711.027       616.98
 1262      711.395          616
 1263      711.764       615.22
 1264      712.132       615.52
 1265        712.5        616.2
 1266      712.869       616.98
 1267      713.236        617.8
 1268      713.604        618.3
 1269      713.972       618.08
 1270       714.34       617.24
 1271      714.707        615.7
 1272      715.074       614.62
 1273      715.442       614.14
 1274      715.809       614.36
 1275      716.176        615.4
 1276      716.542       617.02
 1277      716.909       618.36
 1278      717.276       618.58
 1279      717.642       617.72
 1280      718.008       616.62
 1281      718.374       615.94
 1282       718.74       615.14
 1283      719.106       615.06
 1284      719.472       616.02
 1285      719.838       616.82
 1286      720.203       616.66
 1287      720.568       616.42
 1288      720.934       616.56
 1289      721.299       616.76
 1290      721.664       616.86
 1291      722.029       617.08
 1292      722.393       617.04
 1293      722.758       617.34
 1294      723.122       617.76
 1295      723.486        617.7
 1296      723.851       617.46
 1297      724.215        617.3
 1298      724.578       616.32
 1299      724.942        615.9
 1300      725.306       616.64
 1301      725.669       617.52
 1302      726.033       618.88
 1303      726.396       620.26
 1304      726.759       620.32
 1305      727.122       620.04
 1306      727.485       619.88
 1307      727.847        619.7
 1308       728.21        619.5
 1309      728.572       619.24
 1310      728.935       619.12
 1311      729.297       619.46
 1312      729.659       619.26
 1313      730.021       619.06
 1314      730.382       619.58
 1315      730.744       619.44
 1316      731.105       618.56
 1317      731.467       617.88
 1318      731.828       617.38
 1319      732.189       616.94
 1320       732.55        617.2
 1321      732.911       618.24
 1322      733.271       618.68
 1323      733.632       618.62
 1324      733.992       618.44
 1325      734.352       618.14
 1326      734.713       617.58
 1327      735.072       617.44
 1328      735.432        617.4
 1329      735.792        617.3
 1330      736.152       617.16
 1331      736.511       617.48
 1332       736.87       617.82
 1333      737.229       617.82
 1334      737.589       618.16
 1335      737.947       619.08
 1336      738.306       619.02
 1337      738.665       618.66
 1338      739.023       618.74
 1339      739.382       618.16
 1340       739.74       616.98
 1341      740.098       616.28
 1342      740.456       615.92
 1343      740.814        615.8
 1344      741.171       616.04
 1345      741.529       616.74
 1346      741.886       617.24
 1347      742.244          618
 1348      742.601       618.64
 1349      742.958       618.88
 1350      743.314       618.58
 1351      743.671       618.62
 1352      744.028       618.28
 1353      744.384        617.3
 1354       744.74       616.36
 1355      745.097       615.66
 1356      745.453        615.2
 1357      745.809        615.1
 1358      746.164        615.6
 1359       746.52        616.5
 1360      746.875       617.58
 1361      747.231       618.38
 1362      747.586       618.74
 1363      747.941       619.54
 1364      748.296        620.1
 1365      748.651        619.8
 1366      749.005       619.16
 1367       749.36       618.92
 1368      749.714       618.58
 1369      750.069       618.56
 1370      750.423       618.78
 1371      750.777       619.12
 1372       751.13        619.8
 1373      751.484       619.96
 1374      751.838       619.44
 1375      752.191       618.96
 1376      752.544       618.84
 1377      752.897       618.24
 1378       753.25       617.88
 1379      753.603          618
 1380      753.956       618.16
 1381      754.309       617.96
 1382      754.661       617.42
 1383      755.013        616.7
 1384      755.365       615.66
 1385      755.717       614.86
 1386      756.069       614.36
 1387      756.421       614.44
 1388      756.773        615.2
 1389      757.124       616.14
 1390      757.476       617.06
 1391      757.827       617.68
 1392      758.178       618.08
 1393      758.529       617.82
 1394      758.879        617.6
 1395       759.23       617.58
 1396      759.581       617.84
 1397      759.931       617.82
 1398      760.281       617.38
 1399      760.631       617.46
 1400      760.981       618.06
 1401      761.331       618.54
 1402      761.681        618.9
 1403       762.03       619.58
 1404      762.379       619.12
 1405      762.729       617.48
 1406      763.078       615.64
 1407      763.427       614.18
 1408      763.776       613.46
 1409      764.124       613.66
 1410      764.473        614.5
 1411      764.821       615.64
 1412      765.169       616.54
 1413      765.517       616.48
 1414      765.865       615.84
 1415      766.213       615.02
 1416      766.561       614.22
 1417      766.909       613.54
 1418      767.256       613.06
 1419      767.603       613.52
 1420       767.95        614.2
 1421      768.297       614.72
 1422      768.644       615.52
 1423      768.991       616.56
 1424      769.337       617.32
 1425      769.684       618.14
 1426       770.03        618.5
 1427      770.376       618.54
 1428      770.722       618.18
 1429      771.068       617.22
 1430      771.414       616.04
 1431      771.759       614.92
 1432      772.105          614
 1433       772.45       613.54
 1434      772.795       613.44
 1435       773.14       613.32
 1436      773.485       613.74
 1437       773.83       614.18
 1438      774.174       614.38
 1439      774.519       614.66
 1440      774.863       615.36
 1441      775.207       616.02
 1442      775.551        616.4
 1443      775.895       616.72
 1444      776.239        616.9
 1445      776.582       616.54
 1446      776.926       615.72
 1447      777.269       615.08
 1448      777.612       614.58
 1449      777.955        614.5
 1450      778.298        614.7
 1451      778.641       615.32
 1452      778.983          616
 1453      779.326       616.44
 1454      779.668       615.72
 1455       780.01        614.5
 1456      780.352       613.06
 1457      780.694       611.52
 1458      781.036       611.16
 1459      781.377        611.8
 1460      781.719       611.96
 1461       782.06        612.2
 1462      782.401       612.52
 1463      782.742       612.64
 1464      783.083       612.64
 1465      783.424        612.7
 1466      783.764        612.9
 1467      784.105       613.64
 1468      784.445       614.36
 1469      784.785          615
 1470      785.125       616.08
 1471      785.465       616.66
 1472      785.805       616.84
 1473      786.144       616.52
 1474      786.484       616.16
 1475      786.823       616.34
 1476      787.162       616.86
 1477      787.501       617.08
 1478       787.84       617.74
 1479      788.178       618.84
 1480      788.517       619.16
 1481      788.855       619.06
 1482      789.194        618.8
 1483      789.532       617.46
 1484       789.87       615.48
 1485      790.208       614.06
 1486      790.545       613.26
 1487      790.883       612.92
 1488       791.22       613.22
 1489      791.557       613.92
 1490      791.894        614.9
 1491      792.231       615.42
 1492      792.568       615.82
 1493      792.905       615.92
 1494      793.241        615.7
 1495      793.578        615.5
 1496      793.914       615.88
 1497       794.25       615.94
 1498      794.586       615.96
 1499      794.922        616.3
 1500      795.257       616.28
 1501      795.593       615.94
 1502      795.928       616.24
 1503      796.263       617.16
 1504      796.598       618.08
 1505      796.933       618.68
 1506      797.268        618.7
 1507      797.603          618
 1508      797.937        617.2
 1509      798.271       616.86
 1510      798.606        616.7
 1511       798.94       616.68
 1512      799.274       617.22
 1513      799.607       617.48
 1514      799.941       616.64
 1515      800.274       616.02
 1516      800.608       616.24
 1517      800.941       616.34
 1518      801.274        615.9
 1519      801.607       615.78
 1520      801.939       615.56
 1521      802.272       614.92
 1522      802.604       614.14
 1523      802.936       613.76
 1524      803.269       613.88
 1525      803.601       614.42
 1526      803.932       615.06
 1527      804.264       615.74
 1528      804.596        616.3
 1529      804.927       616.72
 1530      805.258        617.1
 1531      805.589        617.1
 1532       805.92       616.66
 1533      806.251       616.62
 1534      806.582       616.36
 1535      806.912        615.8
 1536      807.242       615.46
 1537      807.573        615.6
 1538      807.903        615.4
 1539      808.232       614.78
 1540      808.562       614.28
 1541      808.892       614.22
 1542      809.221       614.68
 1543      809.551       615.04
 1544       809.88        615.3
 1545      810.209       615.74
 1546      810.538       615.68
 1547      810.866        614.6
 1548      811.195       613.74
 1549      811.523        613.6
 1550      811.851       613.12
 1551       812.18        612.8
 1552      812.507       612.84
 1553      812.835       613.14
 1554      813.163        613.2
 1555       813.49       613.24
 1556      813.818        613.3
 1557      814.145       613.52
 1558      814.472       613.66
 1559      814.799       613.72
 1560      815.126       613.62
 1561      815.452       613.68
 1562      815.779       614.06
 1563      816.105       614.64
 1564      816.431       615.64
 1565      816.757       617.02
 1566      817.083          618
 1567      817.409       618.48
 1568      817.734       618.16
 1569       818.06       617.28
 1570      818.385        616.2
 1571       818.71        615.3
 1572      819.035       614.16
 1573       819.36       613.44
 1574      819.685       613.74
 1575      820.009       614.58
 1576      820.333       615.28
 1577      820.658        616.1
 1578      820.982       616.66
 1579      821.305       616.38
 1580      821.629       615.78
 1581      821.953       615.16
 1582      822.276       614.42
 1583        822.6       613.96
 1584      822.923       614.14
 1585      823.246       614.72
 1586      823.569       615.64
 1587      823.891       616.82
 1588      824.214       618.12
 1589      824.536        618.8
 1590      824.858       618.68
 1591       825.18       618.54
 1592      825.502        618.8
 1593      825.824       619.14
 1594      826.146       619.34
 1595      826.467        619.3
 1596      826.789       618.62
 1597       827.11       617.48
 1598      827.431       616.08
 1599      827.752       615.14
 1600      828.072       614.76
 1601      828.393       614.76
 1602      828.713       615.06
 1603      829.034       615.62
 1604      829.354       615.76
 1605      829.674       615.82
 1606      829.993       616.18
 1607      830.313        616.6
 1608      830.633       616.68
 1609      830.952       616.42
 1610      831.271       615.84
 1611       831.59       615.38
 1612      831.909        615.2
 1613      832.228       615.04
 1614      832.546       615.08
 1615      832.865        615.8
 1616      833.183       616.26
 1617      833.501       616.46
 1618      833.819       617.08
 1619      834.137        618.2
 1620      834.455       618.68
 1621      834.772       618.88
 1622      835.089        618.9
 1623      835.407       618.62
 1624      835.724        618.3
 1625       836.04        618.3
 1626      836.357       618.26
 1627      836.674        618.5
 1628       836.99       618.38
 1629      837.306       617.46
 1630      837.623        616.6
 1631      837.939       616.34
 1632      838.254       615.48
 1633       838.57        614.4
 1634      838.886       613.98
 1635      839.201       613.06
 1636      839.516       611.28
 1637      839.831        610.3
 1638      840.146       610.38
 1639      840.461       610.74
 1640      840.775       611.62
 1641       841.09       613.18
 1642      841.404       614.44
 1643      841.718        615.1
 1644      842.032        615.7
 1645      842.346       616.48
 1646      842.659       617.08
 1647      842.973       617.28
 1648      843.286       617.76
 1649      843.599       618.12
 1650      843.912       618.04
 1651      844.225       617.86
 1652      844.538       617.92
 1653      844.851       617.46
 1654      845.163       617.02
 1655      845.475       616.66
 1656      845.787       616.12
 1657      846.099       615.48
 1658      846.411       615.22
 1659      846.723        614.8
 1660      847.034       614.32
 1661      847.345       614.24
 1662      847.657       614.86
 1663      847.968          616
 1664      848.278        617.1
 1665      848.589       618.08
 1666        848.9       618.82
 1667       849.21       618.96
 1668       849.52       618.26
 1669       849.83       616.98
 1670       850.14          616
 1671       850.45        615.4
 1672      850.759       614.94
 1673      851.069       615.18
 1674      851.378       615.98
 1675      851.687       616.84
 1676      851.996       617.98
 1677      852.305       619.32
 1678      852.614       619.72
 1679      852.922       619.34
 1680       853.23        618.3
 1681      853.539       616.66
 1682      853.847        614.9
 1683      854.154        613.6
 1684      854.462       612.68
 1685       854.77        612.4
 1686      855.077       612.52
 1687      855.384       612.58
 1688      855.691       612.84
 1689      855.998        613.5
 1690      856.305        614.1
 1691      856.612       614.42
 1692      856.918        614.3
 1693      857.224       614.14
 1694       857.53       614.64
 1695      857.836       615.42
 1696      858.142       616.04
 1697      858.448        616.7
 1698      858.753       617.32
 1699      859.059        617.3
 1700      859.364       617.06
 1701      859.669       617.18
 1702      859.974       617.38
 1703      860.278        617.5
 1704      860.583       617.64
 1705      860.887       617.42
 1706      861.192       616.64
 1707      861.496       616.14
 1708        861.8       616.04
 1709      862.103        616.1
 1710      862.407       616.34
 1711       862.71       616.96
 1712      863.014       617.18
 1713      863.317       617.26
 1714       863.62       617.32
 1715      863.922       617.32
 1716      864.225       617.26
 1717      864.527       617.16
 1718       864.83       616.56
 1719      865.132        615.6
 1720      865.434       614.84
 1721      865.736       614.48
 1722      866.037       614.66
 1723      866.339       615.48
 1724       866.64       616.86
 1725      866.941       618.82
 1726      867.242       620.38
 1727      867.543       621.14
 1728      867.844        621.5
 1729      868.145        621.7
 1730      868.445       621.28
 1731      868.745       620.44
 1732      869.045       619.24
 1733      869.345       618.34
 1734      869.645       617.98
 1735      869.944       617.64
 1736      870.244       618.04
 1737      870.543       619.26
 1738      870.842       619.56
 1739      871.141        618.9
 1740       871.44       618.16
 1741      871.739       617.08
 1742      872.037       615.82
 1743      872.335       615.06
 1744      872.634       614.66
 1745      872.931       614.54
 1746      873.229       615.04
 1747      873.527       616.04
 1748      873.824       616.88
 1749      874.122       617.32
 1750      874.419       616.92
 1751      874.716       616.36
 1752      875.013       615.24
 1753      875.309       614.36
 1754      875.606        614.1
 1755      875.902        614.2
 1756      876.199       613.86
 1757      876.495       613.82
 1758       876.79       614.26
 1759      877.086        614.5
 1760      877.382       614.64
 1761      877.677       615.26
 1762      877.972       615.96
 1763      878.267        616.1
 1764      878.562       616.52
 1765      878.857       617.22
 1766      879.152       617.24
 1767      879.446       616.86
 1768       879.74       615.98
 1769      880.034       614.68
 1770      880.328       613.74
 1771      880.622       612.88
 1772      880.916        612.3
 1773      881.209       612.86
 1774      881.502        613.5
 1775      881.795       613.44
 1776      882.088       613.94
 1777      882.381       615.16
 1778      882.674       615.92
 1779      882.966       615.96
 1780      883.258        615.9
 1781      883.551       615.68
 1782      883.843        614.8
 1783      884.134       613.96
 1784      884.426       614.08
 1785      884.717        614.8
 1786      885.009       615.48
 1787        885.3       616.48
 1788      885.591       617.68
 1789      885.882        618.7
 1790      886.172       619.76
 1791      886.463        620.6
 1792      886.753        620.7
 1793      887.043       620.64
 1794      887.333       620.76
 1795      887.623        620.4
 1796      887.913       619.78
 1797      888.202        619.4
 1798      888.492       619.12
 1799      888.781       618.68
 1800       889.07       618.32
 1801      889.359       617.88
 1802      889.647       617.42
 1803      889.936        617.3
 1804      890.224       617.04
 1805      890.512       617.12
 1806        890.8       617.32
 1807      891.088       617.56
 1808      891.376       617.56
 1809      891.663       617.78
 1810      891.951       617.54
 1811      892.238       617.44
 1812      892.525       617.76
 1813      892.812       617.66
 1814      893.099       617.28
 1815      893.385       617.26
 1816      893.671       617.42
 1817      893.958       617.24
 1818      894.244       617.14
 1819       894.53       616.66
 1820      894.815        615.6
 1821      895.101       614.52
 1822      895.386       614.08
 1823      895.671       613.68
 1824      895.956       613.68
 1825      896.241       614.54
 1826      896.526        615.3
 1827       896.81       615.44
 1828      897.095       615.48
 1829      897.379       615.22
 1830      897.663       614.54
 1831      897.947       613.94
 1832      898.231       613.84
 1833      898.514       614.38
 1834      898.798       615.26
 1835      899.081       616.36
 1836      899.364       617.18
 1837      899.647       617.02
 1838      899.929       616.08
 1839      900.212        615.8
 1840      900.494       616.12
 1841      900.776       616.58
 1842      901.058       617.66
 1843       901.34       618.58
 1844      901.622       618.14
 1845      901.904        616.6
 1846      902.185       615.34
 1847      902.466        614.5
 1848      902.747        614.1
 1849      903.028        614.3
 1850      903.309       614.94
 1851      903.589       615.62
 1852       903.87       615.98
 1853       904.15       616.28
 1854       904.43       616.74
 1855       904.71       617.22
 1856      904.989       617.24
 1857      905.269       617.48
 1858      905.548       617.98
 1859      905.827        618.3
 1860      906.106       618.68
 1861      906.385          619
 1862      906.664       618.22
 1863      906.942       617.38
 1864      907.221       616.64
 1865      907.499       614.96
 1866      907.777       613.58
 1867      908.055       613.38
 1868      908.332       613.16
 1869       908.61       612.88
 1870      908.887       613.22
 1871      909.164        613.5
 1872      909.441        613.9
 1873      909.718       614.58
 1874      909.995       614.88
 1875      910.271       615.34
 1876      910.548       616.06
 1877      910.824       616.18
 1878        911.1       615.92
 1879      911.375       616.28
 1880      911.651       616.46
 1881      911.927       616.32
 1882      912.202       616.64
 1883      912.477          617
 1884      912.752        616.8
 1885      913.027       616.42
 1886      913.301       616.36
 1887      913.576       616.04
 1888       913.85       615.64
 1889      914.124       615.72
 1890      914.398       616.06
 1891      914.672        616.4
 1892      914.945       616.68
 1893      915.219       616.86
 1894      915.492       616.64
 1895      915.765       616.86
 1896      916.038       616.96
 1897      916.311        616.5
 1898      916.583       616.24
 1899      916.856        616.6
 1900      917.128       616.58
 1901        917.4       616.42
 1902      917.672       616.98
 1903      917.944       617.82
 1904      918.215       618.08
 1905      918.486       617.84
 1906      918.758        617.4
 1907      919.029       616.68
 1908      919.299       615.96
 1909       919.57       615.64
 1910      919.841       615.88
 1911      920.111       616.38
 1912      920.381       616.58
 1913      920.651       616.22
 1914      920.921       615.76
 1915      921.191       615.66
 1916       921.46       615.28
 1917      921.729       615.04
 1918      921.999       614.98
 1919      922.268       615.24
 1920      922.536       615.24
 1921      922.805        615.6
 1922      923.073        616.3
 1923      923.342       617.28
 1924       923.61       617.84
 1925      923.878       618.22
 1926      924.145       618.44
 1927      924.413       618.22
 1928       924.68       617.62
 1929      924.948       617.38
 1930      925.215       617.42
 1931      925.482        617.6
 1932      925.748       618.16
 1933      926.015        618.9
 1934      926.281       618.84
 1935      926.547       618.02
 1936      926.813       617.06
 1937      927.079       616.48
 1938      927.345       616.06
 1939       927.61        616.1
 1940      927.876       617.14
 1941      928.141       618.44
 1942      928.406       619.28
 1943      928.671       619.68
 1944      928.935       619.64
 1945        929.2       619.28
 1946      929.464       618.78
 1947      929.728       617.84
 1948      929.992       617.54
 1949      930.256        618.1
 1950       930.52       618.84
 1951      930.783       619.32
 1952      931.046       619.94
 1953      931.309       620.14
 1954      931.572       619.74
 1955      931.835       618.64
 1956      932.097       617.62
 1957       932.36       616.76
 1958      932.622          616
 1959      932.884       615.38
 1960      933.146       615.22
 1961      933.408       615.36
 1962      933.669       615.54
 1963       933.93       615.74
 1964      934.192       616.12
 1965      934.453       616.06
 1966      934.713       615.26
 1967      934.974       614.62
 1968      935.234        614.2
 1969      935.495       613.64
 1970      935.755       613.94
 1971      936.015       615.42
 1972      936.274        616.8
 1973      936.534       616.94
 1974      936.793       616.84
 1975      937.053        616.7
 1976      937.312       616.28
 1977      937.571        615.5
 1978      937.829        615.9
 1979      938.088       617.28
 1980      938.346       618.06
 1981      938.604          618
 1982      938.862       618.16
 1983       939.12       618.14
 1984      939.378       617.32
 1985      939.635       616.78
 1986      939.893        617.1
 1987       940.15       617.68
 1988      940.407       618.08
 1989      940.663       619.08
 1990       940.92       619.84
 1991      941.176       619.34
 1992      941.433        618.7
 1993      941.689       618.22
 1994      941.944       617.32
 1995        942.2       616.36
 1996      942.456       616.16
 1997      942.711       616.34
 1998      942.966       616.12
 1999      943.221       615.42
 2000      943.476        615.1
 2001      943.731       615.44
 2002      943.985       615.34
 2003      944.239       615.12
 2004      944.493        615.3
 2005      944.747       615.08
 2006      945.001       614.16
 2007      945.255       613.76
 2008      945.508       614.18
 2009      945.761       615.16
 2010      946.014       616.42
 2011      946.267       617.46
 2012       946.52        617.3
 2013      946.772        616.5
 2014      947.025       615.76
 2015      947.277       615.56
 2016      947.529       616.02
 2017      947.781       617.16
 2018      948.032       617.76
 2019      948.284          617
 2020      948.535       615.98
 2021      948.786       614.96
 2022      949.037       614.34
 2023      949.288       614.84
 2024      949.538       615.82
 2025      949.789       616.38
 2026      950.039       616.64
 2027      950.289        616.8
 2028      950.539       617.14
 2029      950.788        617.4
 2030      951.038       617.06
 2031      951.287       616.82
 2032      951.536       616.82
 2033      951.785       616.48
 2034      952.034       616.26
 2035      952.282        616.6
 2036      952.531       616.98
 2037      952.779        617.1
 2038      953.027        617.2
 2039      953.275       617.62
 2040      953.523       617.98
 2041       953.77       617.52
 2042      954.017       616.72
 2043      954.264       616.12
 2044      954.511        615.2
 2045      954.758        614.8
 2046      955.005        614.9
 2047      955.251        615.3
