scansci Spectrometer Data File
--- Measurement Setting ---
Type: Sample Spectrum
Date: Mon Oct 16 16:19:42 2023
User: (Reserved by scansci)
Serial: (Reserved by scansci)
Channel: No. 11
Integration Time: 1
Average: 10
Boxcar: 2
Electrical Dark: No-corrected
Time Normalize: (Reserved by scansci)
Dual-beam: (Reserved by scansci)
Reference Ch: (Reserved by scansci)
--- Measurement Data ---
Pixel   Wavelength   Intensity
    0        344.4        627.2
    1      344.867          627
    2      345.334       626.54
    3      345.801       626.08
    4      346.268        625.8
    5      346.735       625.66
    6      347.202       625.06
    7      347.669       624.54
    8      348.135       624.18
    9      348.602       623.48
   10      349.068       622.88
   11      349.535       622.88
   12      350.001        623.4
   13      350.467       624.28
   14      350.933       625.26
   15      351.399       625.82
   16      351.866       626.28
   17      352.331       626.98
   18      352.797       627.46
   19      353.263       627.74
   20      353.729       628.04
   21      354.194        628.1
   22       354.66       627.52
   23      355.126       626.62
   24      355.591       625.58
   25      356.056       625.22
   26      356.522       625.62
   27      356.987       626.48
   28      357.452       626.88
   29      357.917       627.36
   30      358.382       627.56
   31      358.847       627.42
   32      359.312       626.96
   33      359.776        626.9
   34      360.241       626.84
   35      360.706       626.54
   36       361.17       626.28
   37      361.634        626.3
   38      362.099       626.52
   39      362.563       627.04
   40      363.027       627.94
   41      363.491        628.8
   42      363.955       629.54
   43      364.419       629.98
   44      364.883       630.06
   45      365.347       629.72
   46      365.811       628.72
   47      366.274       627.14
   48      366.738        626.1
   49      367.201       625.72
   50      367.665       625.14
   51      368.128       624.76
   52      368.592          625
   53      369.055       625.08
   54      369.518       624.86
   55      369.981       624.82
   56      370.444       624.88
   57      370.907       624.92
   58       371.37       624.96
   59      371.832       624.96
   60      372.295       625.46
   61      372.757       625.92
   62       373.22        626.1
   63      373.682       626.02
   64      374.145       626.16
   65      374.607       626.36
   66      375.069       626.56
   67      375.531        626.8
   68      375.993       627.08
   69      376.455       627.04
   70      376.917       626.96
   71      377.379        627.1
   72      377.841       626.82
   73      378.302       626.42
   74      378.764       626.08
   75      379.225       625.78
   76      379.687       625.66
   77      380.148       625.82
   78      380.609       626.04
   79      381.071       626.14
   80      381.532       626.12
   81      381.993       625.76
   82      382.454        625.5
   83      382.915       625.32
   84      383.375       624.78
   85      383.836       624.12
   86      384.297       623.76
   87      384.757        623.5
   88      385.218       623.66
   89      385.678        624.8
   90      386.138        626.1
   91      386.599       627.36
   92      387.059       628.88
   93      387.519       629.82
   94      387.979        630.1
   95      388.439       630.14
   96      388.899          630
   97      389.358       629.68
   98      389.818       629.84
   99      390.278       629.88
  100      390.737       629.36
  101      391.197       628.76
  102      391.656        628.1
  103      392.115       626.76
  104      392.575        625.6
  105      393.034        625.1
  106      393.493       624.94
  107      393.952        624.9
  108      394.411       625.08
  109       394.87       624.98
  110      395.328       624.84
  111      395.787       624.86
  112      396.246       624.86
  113      396.704       625.18
  114      397.163       625.82
  115      397.621       626.24
  116      398.079       626.58
  117      398.537       627.28
  118      398.995       628.32
  119      399.454       629.36
  120      399.911       630.24
  121      400.369       630.56
  122      400.827       630.18
  123      401.285       629.14
  124      401.743       627.78
  125        402.2       626.48
  126      402.658        625.3
  127      403.115       624.18
  128      403.572       623.28
  129       404.03          623
  130      404.487       623.52
  131      404.944       624.34
  132      405.401       625.12
  133      405.858       625.44
  134      406.315       625.94
  135      406.771        625.9
  136      407.228        625.7
  137      407.685       625.48
  138      408.141       625.44
  139      408.598       625.16
  140      409.054       625.24
  141       409.51       624.96
  142      409.967       624.74
  143      410.423       624.82
  144      410.879       624.74
  145      411.335        624.4
  146      411.791        624.7
  147      412.246        625.4
  148      412.702       625.84
  149      413.158        625.9
  150      413.613       626.18
  151      414.069       626.42
  152      414.524        626.4
  153       414.98       626.74
  154      415.435       626.98
  155       415.89       626.44
  156      416.345       625.74
  157        416.8        625.8
  158      417.255       625.82
  159       417.71       625.98
  160      418.165       626.64
  161      418.619       627.46
  162      419.074        627.3
  163      419.529       626.34
  164      419.983       625.62
  165      420.437       625.42
  166      420.892       624.76
  167      421.346        624.1
  168        421.8       624.48
  169      422.254       625.14
  170      422.708       625.46
  171      423.162          626
  172      423.616       626.52
  173       424.07       626.42
  174      424.523       625.74
  175      424.977       624.98
  176       425.43       624.56
  177      425.884       624.54
  178      426.337       624.72
  179       426.79       625.48
  180      427.243       626.38
  181      427.697       626.76
  182       428.15       626.46
  183      428.602          626
  184      429.055       625.32
  185      429.508       624.62
  186      429.961       624.44
  187      430.413       624.84
  188      430.866       625.04
  189      431.318       625.32
  190      431.771       625.64
  191      432.223        625.4
  192      432.675       625.52
  193      433.127        626.1
  194      433.579       626.24
  195      434.031       626.42
  196      434.483        626.9
  197      434.935       627.12
  198      435.387       626.96
  199      435.838       626.78
  200       436.29       626.24
  201      436.741       625.98
  202      437.193        625.5
  203      437.644       625.38
  204      438.095       625.86
  205      438.546        626.6
  206      438.997        627.2
  207      439.448        627.8
  208      439.899       628.24
  209       440.35        628.2
  210      440.801       627.74
  211      441.251       626.78
  212      441.702        625.7
  213      442.152       624.34
  214      442.603       623.32
  215      443.053       622.92
  216      443.503       623.52
  217      443.954       625.14
  218      444.404       627.42
  219      444.854       629.02
  220      445.304       629.98
  221      445.753       630.56
  222      446.203       630.06
  223      446.653       628.82
  224      447.102       627.62
  225      447.552       626.66
  226      448.001       625.82
  227      448.451       625.32
  228        448.9       625.72
  229      449.349       626.38
  230      449.798       626.84
  231      450.247       626.72
  232      450.696       626.16
  233      451.145       624.94
  234      451.594       623.82
  235      452.042       623.12
  236      452.491       622.44
  237      452.939       621.98
  238      453.388       622.02
  239      453.836       622.54
  240      454.285        623.2
  241      454.733       623.84
  242      455.181       624.52
  243      455.629       625.12
  244      456.077       625.18
  245      456.525       624.62
  246      456.972       624.42
  247       457.42       624.84
  248      457.868       624.76
  249      458.315       624.62
  250      458.763       624.94
  251       459.21       624.94
  252      459.657        624.5
  253      460.104       624.28
  254      460.552       624.14
  255      460.999       623.92
  256      461.446       624.18
  257      461.892       624.54
  258      462.339       625.08
  259      462.786       625.96
  260      463.233       626.84
  261      463.679       627.06
  262      464.125        626.9
  263      464.572       626.82
  264      465.018        626.5
  265      465.464       626.16
  266       465.91       626.04
  267      466.356       625.92
  268      466.802       625.84
  269      467.248       626.06
  270      467.694       626.18
  271       468.14       626.28
  272      468.585        626.6
  273      469.031       626.58
  274      469.476       626.14
  275      469.922        625.5
  276      470.367       624.94
  277      470.812       624.68
  278      471.257       624.62
  279      471.702        624.8
  280      472.147       625.22
  281      472.592       625.18
  282      473.037       624.72
  283      473.482        624.4
  284      473.926       624.52
  285      474.371       624.52
  286      474.815       624.84
  287      475.259       625.64
  288      475.704       626.28
  289      476.148       626.54
  290      476.592       627.02
  291      477.036        627.5
  292       477.48       627.72
  293      477.924       627.92
  294      478.368       627.92
  295      478.811        627.7
  296      479.255        627.5
  297      479.698       627.16
  298      480.142          627
  299      480.585       626.46
  300      481.028        625.7
  301      481.472        624.8
  302      481.915       624.28
  303      482.358       624.18
  304      482.801       624.64
  305      483.244       625.52
  306      483.686       626.92
  307      484.129        627.9
  308      484.572       628.04
  309      485.014       628.18
  310      485.456       628.44
  311      485.899       628.38
  312      486.341        628.5
  313      486.783       628.82
  314      487.225       628.72
  315      487.667        628.4
  316      488.109       628.14
  317      488.551       627.82
  318      488.993       627.48
  319      489.434       627.16
  320      489.876       626.96
  321      490.318       626.98
  322      490.759       626.84
  323        491.2       627.18
  324      491.641       627.96
  325      492.083       628.36
  326      492.524        628.9
  327      492.965       629.38
  328      493.406        629.4
  329      493.846       628.98
  330      494.287       628.86
  331      494.728       628.66
  332      495.168       628.62
  333      495.609        628.3
  334      496.049       628.16
  335      496.489       627.86
  336       496.93       627.42
  337       497.37        626.9
  338       497.81       626.38
  339       498.25          626
  340       498.69       625.94
  341      499.129       626.04
  342      499.569       625.94
  343      500.009        625.7
  344      500.448       625.66
  345      500.888       625.46
  346      501.327       625.34
  347      501.766        625.5
  348      502.206       625.96
  349      502.645       626.12
  350      503.084       625.94
  351      503.523       625.38
  352      503.961       625.06
  353        504.4       624.88
  354      504.839       624.44
  355      505.277       624.12
  356      505.716       624.58
  357      506.154       625.04
  358      506.593       625.58
  359      507.031        626.3
  360      507.469       627.04
  361      507.907       626.68
  362      508.345        625.9
  363      508.783       625.08
  364      509.221        624.7
  365      509.659        624.7
  366      510.096       625.04
  367      510.534       625.54
  368      510.971       626.12
  369      511.409       626.52
  370      511.846       626.34
  371      512.283       625.88
  372       512.72       625.48
  373      513.157       625.28
  374      513.594       625.16
  375      514.031       625.46
  376      514.468       626.24
  377      514.905       627.54
  378      515.341       628.44
  379      515.778       629.06
  380      516.214       629.46
  381       516.65       629.58
  382      517.087       629.12
  383      517.523        628.3
  384      517.959       627.72
  385      518.395        627.5
  386      518.831       627.34
  387      519.267       627.18
  388      519.702       627.44
  389      520.138       627.36
  390      520.574       626.96
  391      521.009       626.28
  392      521.444        625.3
  393       521.88        624.7
  394      522.315       624.98
  395       522.75       626.12
  396      523.185        627.4
  397       523.62        628.8
  398      524.055        629.7
  399       524.49       629.58
  400      524.924       628.74
  401      525.359          628
  402      525.794       627.62
  403      526.228       627.16
  404      526.662        626.8
  405      527.097        626.6
  406      527.531       626.84
  407      527.965       627.12
  408      528.399       627.26
  409      528.833        627.4
  410      529.267       627.32
  411        529.7       627.58
  412      530.134       628.02
  413      530.568       628.76
  414      531.001       629.74
  415      531.434       630.52
  416      531.868        630.1
  417      532.301        629.2
  418      532.734       628.44
  419      533.167       627.76
  420        533.6       627.58
  421      534.033       628.16
  422      534.466        629.1
  423      534.898       629.98
  424      535.331       631.08
  425      535.763       631.58
  426      536.196       631.66
  427      536.628        631.8
  428       537.06       631.56
  429      537.493       630.54
  430      537.925        630.1
  431      538.357       630.02
  432      538.788       629.58
  433       539.22       629.68
  434      539.652       630.74
  435      540.084       632.02
  436      540.515       633.42
  437      540.947       635.14
  438      541.378       636.68
  439      541.809       637.24
  440       542.24       637.12
  441      542.672       637.02
  442      543.103       636.76
  443      543.533       636.26
  444      543.964        636.5
  445      544.395       636.88
  446      544.826       636.92
  447      545.256       637.22
  448      545.687        637.5
  449      546.117       637.82
  450      546.547        639.1
  451      546.978       640.36
  452      547.408       640.74
  453      547.838       641.36
  454      548.268       642.06
  455      548.698       642.26
  456      549.127       642.72
  457      549.557        643.9
  458      549.987       645.22
  459      550.416        646.6
  460      550.846       647.92
  461      551.275       649.02
  462      551.704       649.48
  463      552.133       649.18
  464      552.562       648.24
  465      552.991       647.44
  466       553.42        647.1
  467      553.849       647.72
  468      554.278       649.64
  469      554.706        652.4
  470      555.135       655.16
  471      555.563       657.42
  472      555.991        659.3
  473       556.42       660.54
  474      556.848        661.1
  475      557.276       660.94
  476      557.704       660.92
  477      558.132       661.12
  478       558.56        661.5
  479      558.987       662.64
  480      559.415       664.32
  481      559.843       665.88
  482       560.27       667.18
  483      560.697        668.7
  484      561.125       669.98
  485      561.552        671.3
  486      561.979       672.78
  487      562.406       674.48
  488      562.833        676.4
  489       563.26       678.56
  490      563.686       680.76
  491      564.113       683.02
  492       564.54       685.26
  493      564.966       687.18
  494      565.392       688.28
  495      565.819       688.98
  496      566.245       690.08
  497      566.671       691.58
  498      567.097       693.28
  499      567.523       695.86
  500      567.949          699
  501      568.374       701.88
  502        568.8       704.08
  503      569.226       705.74
  504      569.651       707.04
  505      570.077       708.24
  506      570.502       709.62
  507      570.927       711.32
  508      571.352       712.74
  509      571.777       713.68
  510      572.202       714.52
  511      572.627        715.1
  512      573.052       716.08
  513      573.476       718.32
  514      573.901       721.52
  515      574.325       724.44
  516       574.75       727.32
  517      575.174       730.14
  518      575.598       732.28
  519      576.022       733.86
  520      576.446        735.5
  521       576.87        736.9
  522      577.294        738.4
  523      577.718       740.22
  524      578.142       742.14
  525      578.565        744.4
  526      578.989       746.58
  527      579.412       748.34
  528      579.835       750.42
  529      580.259       752.78
  530      580.682       754.88
  531      581.105       756.92
  532      581.528        759.2
  533      581.951       761.54
  534      582.373       763.78
  535      582.796       766.48
  536      583.219       769.56
  537      583.641        772.1
  538      584.063       773.74
  539      584.486       775.08
  540      584.908       775.94
  541       585.33       777.28
  542      585.752       779.18
  543      586.174       781.58
  544      586.596       784.58
  545      587.018       787.94
  546      587.439       790.96
  547      587.861       793.48
  548      588.282        795.9
  549      588.704       797.38
  550      589.125       798.74
  551      589.546       800.76
  552      589.967       803.06
  553      590.388       805.44
  554      590.809        808.6
  555       591.23       811.68
  556      591.651       814.04
  557      592.071       816.84
  558      592.492        819.5
  559      592.912       822.24
  560      593.333       825.32
  561      593.753       827.94
  562      594.173       829.58
  563      594.593       830.82
  564      595.013       831.54
  565      595.433       831.24
  566      595.853       831.44
  567      596.273       832.34
  568      596.693       832.98
  569      597.112       832.96
  570      597.532       833.66
  571      597.951       834.48
  572       598.37       834.88
  573      598.789       835.84
  574      599.208       837.94
  575      599.627       840.16
  576      600.046       842.16
  577      600.465        844.6
  578      600.884       847.02
  579      601.303       848.38
  580      601.721        848.9
  581      602.139        849.1
  582      602.558        849.1
  583      602.976       849.12
  584      603.394        849.4
  585      603.812        850.1
  586       604.23        851.6
  587      604.648       853.22
  588      605.066       855.02
  589      605.484       857.66
  590      605.901       860.46
  591      606.319       862.34
  592      606.736        863.6
  593      607.154       864.32
  594      607.571       864.38
  595      607.988       864.56
  596      608.405       864.82
  597      608.822       865.12
  598      609.239       865.56
  599      609.656       865.78
  600      610.072       865.68
  601      610.489        865.8
  602      610.905       865.74
  603      611.322       865.26
  604      611.738       865.02
  605      612.154       864.88
  606       612.57       864.72
  607      612.986       864.56
  608      613.402       864.14
  609      613.818       862.92
  610      614.234       861.92
  611       614.65       861.88
  612      615.065       862.94
  613      615.481       864.42
  614      615.896        866.5
  615      616.311        868.5
  616      616.727       869.46
  617      617.142        869.4
  618      617.557        869.2
  619      617.972       869.02
  620      618.386       868.06
  621      618.801       867.04
  622      619.216        866.4
  623       619.63        865.9
  624      620.045        865.2
  625      620.459        865.1
  626      620.873       865.56
  627      621.287          866
  628      621.702       866.42
  629      622.116       866.72
  630      622.529       867.02
  631      622.943        866.6
  632      623.357       865.96
  633      623.771       865.62
  634      624.184       865.98
  635      624.597       866.56
  636      625.011       866.98
  637      625.424       866.74
  638      625.837       865.56
  639       626.25       863.52
  640      626.663       861.16
  641      627.076       859.22
  642      627.489       858.22
  643      627.901       858.12
  644      628.314        858.5
  645      628.726       858.84
  646      629.139       858.88
  647      629.551       858.76
  648      629.963       858.84
  649      630.375       858.68
  650      630.787       858.28
  651      631.199       858.44
  652      631.611       858.52
  653      632.023        857.9
  654      632.434       857.18
  655      632.846       856.86
  656      633.257       856.08
  657      633.669        854.9
  658       634.08        853.9
  659      634.491       852.68
  660      634.902        850.6
  661      635.313       848.76
  662      635.724        847.5
  663      636.135       846.12
  664      636.545       845.06
  665      636.956       844.72
  666      637.366       843.78
  667      637.777       842.32
  668      638.187       841.86
  669      638.597        841.8
  670      639.007       841.42
  671      639.417       841.26
  672      639.827       841.62
  673      640.237       841.16
  674      640.647       839.96
  675      641.056       838.46
  676      641.466       837.02
  677      641.875       835.48
  678      642.285        834.1
  679      642.694       832.66
  680      643.103       831.14
  681      643.512       829.42
  682      643.921       827.28
  683       644.33        824.6
  684      644.739          822
  685      645.148       819.28
  686      645.556       816.42
  687      645.965       813.92
  688      646.373       811.76
  689      646.781       810.22
  690      647.189       809.86
  691      647.598        809.6
  692      648.006       809.22
  693      648.414       808.88
  694      648.821        808.1
  695      649.229       806.98
  696      649.637        806.6
  697      650.044       806.08
  698      650.452       804.72
  699      650.859       803.04
  700      651.266       801.12
  701      651.673       799.46
  702       652.08       798.08
  703      652.487       797.52
  704      652.894       797.52
  705      653.301       797.24
  706      653.708       795.96
  707      654.114       794.06
  708      654.521       791.96
  709      654.927        789.8
  710      655.333       787.34
  711       655.74       784.28
  712      656.146       781.62
  713      656.552       779.62
  714      656.958       778.16
  715      657.363        777.6
  716      657.769        777.8
  717      658.175       777.36
  718       658.58       775.98
  719      658.986       774.26
  720      659.391       772.26
  721      659.796       770.12
  722      660.201        768.3
  723      660.606       766.46
  724      661.011        764.4
  725      661.416       762.82
  726      661.821       761.44
  727      662.225       760.06
  728       662.63       759.14
  729      663.034       758.58
  730      663.439        757.7
  731      663.843       756.84
  732      664.247       756.48
  733      664.651        755.9
  734      665.055       754.46
  735      665.459       752.84
  736      665.863       750.94
  737      666.267       748.96
  738       666.67        747.6
  739      667.074       746.52
  740      667.477       745.36
  741       667.88       744.46
  742      668.283       743.24
  743      668.687        741.6
  744       669.09       740.06
  745      669.492        738.5
  746      669.895       736.76
  747      670.298        735.7
  748      670.701       735.36
  749      671.103       735.06
  750      671.505       734.54
  751      671.908       733.84
  752       672.31       732.78
  753      672.712       731.12
  754      673.114       729.02
  755      673.516       727.22
  756      673.918       726.04
  757       674.32       724.48
  758      674.721       722.68
  759      675.123       721.26
  760      675.524       720.04
  761      675.926       718.28
  762      676.327       716.76
  763      676.728       715.72
  764      677.129        715.1
  765       677.53       714.48
  766      677.931       714.36
  767      678.332        714.4
  768      678.732       713.78
  769      679.133       712.58
  770      679.533       711.04
  771      679.934       708.98
  772      680.334        706.8
  773      680.734       704.88
  774      681.134        703.5
  775      681.534       703.12
  776      681.934       703.46
  777      682.334       704.18
  778      682.733       704.92
  779      683.133        705.2
  780      683.532       704.82
  781      683.932        703.9
  782      684.331       702.44
  783       684.73       701.36
  784      685.129       700.96
  785      685.528       700.34
  786      685.927       699.96
  787      686.326       699.84
  788      686.725       699.36
  789      687.123       698.28
  790      687.522       697.54
  791       687.92       697.04
  792      688.319        696.6
  793      688.717       696.08
  794      689.115       695.52
  795      689.513       694.44
  796      689.911       693.08
  797      690.309       692.04
  798      690.706        691.4
  799      691.104       690.58
  800      691.501       690.02
  801      691.899       689.64
  802      692.296       688.84
  803      692.693       687.76
  804       693.09       687.16
  805      693.488       686.62
  806      693.884       686.02
  807      694.281       685.42
  808      694.678       684.34
  809      695.075       683.06
  810      695.471        682.1
  811      695.868       681.14
  812      696.264       680.14
  813       696.66       679.96
  814      697.056          680
  815      697.452        679.4
  816      697.848       678.76
  817      698.244       678.42
  818       698.64       678.04
  819      699.035       677.78
  820      699.431       677.66
  821      699.826       677.22
  822      700.222       676.62
  823      700.617       675.34
  824      701.012       673.66
  825      701.407        672.4
  826      701.802       671.92
  827      702.197       671.38
  828      702.592       671.02
  829      702.986       670.82
  830      703.381       670.58
  831      703.775       670.08
  832       704.17        669.6
  833      704.564       669.32
  834      704.958       668.68
  835      705.352       667.48
  836      705.746        666.1
  837       706.14        665.3
  838      706.533        665.1
  839      706.927       665.04
  840      707.321       665.08
  841      707.714       665.22
  842      708.107       664.46
  843      708.501       662.74
  844      708.894       661.32
  845      709.287       660.36
  846       709.68       659.46
  847      710.073       659.06
  848      710.465       658.74
  849      710.858       658.02
  850      711.251       657.32
  851      711.643       656.76
  852      712.035       655.94
  853      712.428       655.68
  854       712.82        655.7
  855      713.212       655.94
  856      713.604       656.04
  857      713.995       655.48
  858      714.387       654.58
  859      714.779       654.12
  860       715.17       653.36
  861      715.562       652.38
  862      715.953        652.4
  863      716.344       652.76
  864      716.735        652.5
  865      717.127       652.24
  866      717.517       652.28
  867      717.908       651.74
  868      718.299       650.74
  869       718.69       650.02
  870       719.08          649
  871      719.471       647.86
  872      719.861       647.02
  873      720.251       646.24
  874      720.641       645.92
  875      721.031       646.04
  876      721.421       645.84
  877      721.811        645.6
  878      722.201       645.92
  879       722.59       646.26
  880       722.98       646.62
  881      723.369        647.1
  882      723.759       647.52
  883      724.148        647.9
  884      724.537       647.84
  885      724.926       647.42
  886      725.315        647.3
  887      725.704        647.1
  888      726.092       646.38
  889      726.481       645.62
  890       726.87        644.8
  891      727.258       643.56
  892      727.646       642.62
  893      728.034       641.86
  894      728.423       641.28
  895      728.811       640.98
  896      729.198       640.58
  897      729.586       640.34
  898      729.974       640.38
  899      730.362       640.54
  900      730.749        640.7
  901      731.136       640.88
  902      731.524        640.7
  903      731.911       640.76
  904      732.298       640.54
  905      732.685       639.82
  906      733.072       639.68
  907      733.459       639.72
  908      733.845       638.76
  909      734.232       637.64
  910      734.618       636.84
  911      735.005       635.94
  912      735.391       635.42
  913      735.777       635.76
  914      736.163        636.1
  915      736.549       635.98
  916      736.935       635.94
  917      737.321          636
  918      737.706       635.82
  919      738.092          636
  920      738.477       637.02
  921      738.863       638.02
  922      739.248       638.28
  923      739.633       638.28
  924      740.018       637.68
  925      740.403       636.76
  926      740.788       635.68
  927      741.173       634.86
  928      741.557        634.2
  929      741.942       634.02
  930      742.326          634
  931      742.711       633.94
  932      743.095        633.9
  933      743.479       633.92
  934      743.863       633.84
  935      744.247       633.58
  936      744.631       633.58
  937      745.015       633.84
  938      745.398       634.34
  939      745.782       634.76
  940      746.165       635.32
  941      746.548       635.46
  942      746.932       634.54
  943      747.315       633.62
  944      747.698       633.72
  945      748.081       634.02
  946      748.463       633.98
  947      748.846       634.38
  948      749.229       634.46
  949      749.611        633.8
  950      749.993       632.78
  951      750.376        632.1
  952      750.758       631.98
  953       751.14       632.24
  954      751.522       632.44
  955      751.904        632.7
  956      752.285       632.64
  957      752.667        632.6
  958      753.049       632.52
  959       753.43       632.24
  960      753.811       632.28
  961      754.193       632.84
  962      754.574        632.9
  963      754.955       632.58
  964      755.336        632.4
  965      755.717       632.16
  966      756.097       632.04
  967      756.478       632.02
  968      756.858       632.02
  969      757.239       631.94
  970      757.619        631.6
  971      757.999       631.16
  972      758.379        630.9
  973      758.759        630.8
  974      759.139        630.6
  975      759.519        630.6
  976      759.899       630.96
  977      760.278       631.52
  978      760.658       631.86
  979      761.037        632.1
  980      761.417       632.12
  981      761.796       631.62
  982      762.175       630.74
  983      762.554        630.4
  984      762.933        630.8
  985      763.311        630.8
  986       763.69       630.64
  987      764.068       630.74
  988      764.447        630.6
  989      764.825        629.6
  990      765.203       628.84
  991      765.582       628.88
  992       765.96       628.66
  993      766.338          628
  994      766.715       627.54
  995      767.093       627.24
  996      767.471       626.36
  997      767.848       625.76
  998      768.226       626.02
  999      768.603        626.9
 1000       768.98        627.9
 1001      769.357       628.66
 1002      769.734       629.12
 1003      770.111       629.28
 1004      770.488        629.4
 1005      770.864       629.24
 1006      771.241       629.04
 1007      771.617       628.72
 1008      771.994       628.68
 1009       772.37        628.9
 1010      772.746        629.1
 1011      773.122       629.56
 1012      773.498       630.18
 1013      773.874       630.12
 1014       774.25       629.22
 1015      774.625        628.5
 1016      775.001       627.86
 1017      775.376       627.52
 1018      775.751       627.46
 1019      776.127       627.72
 1020      776.502        628.2
 1021      776.877       628.48
 1022      777.252        628.5
 1023      777.626       628.46
 1024      778.001       627.84
 1025      778.375       626.74
 1026       778.75       626.12
 1027      779.124          626
 1028      779.499       625.94
 1029      779.873       626.44
 1030      780.247        627.3
 1031      780.621       627.76
 1032      780.994       627.82
 1033      781.368       628.12
 1034      781.742       628.44
 1035      782.115       628.76
 1036      782.489       629.12
 1037      782.862       629.18
 1038      783.235       628.88
 1039      783.608        628.3
 1040      783.981       627.88
 1041      784.354        627.9
 1042      784.727       628.12
 1043        785.1        628.4
 1044      785.472       628.76
 1045      785.845        628.7
 1046      786.217        628.1
 1047      786.589       627.54
 1048      786.961       627.24
 1049      787.333       627.72
 1050      787.705       628.58
 1051      788.077          629
 1052      788.449       629.32
 1053       788.82       629.32
 1054      789.192       628.32
 1055      789.563       627.06
 1056      789.934       626.58
 1057      790.306       626.16
 1058      790.677        625.8
 1059      791.048       626.26
 1060      791.419       626.76
 1061      791.789       626.96
 1062       792.16       627.32
 1063       792.53       627.76
 1064      792.901       627.62
 1065      793.271       627.18
 1066      793.641       626.96
 1067      794.012        626.7
 1068      794.382        626.2
 1069      794.751        625.9
 1070      795.121        626.6
 1071      795.491       627.28
 1072      795.861       627.78
 1073       796.23       628.14
 1074      796.599       628.22
 1075      796.969       627.74
 1076      797.338       627.22
 1077      797.707       626.56
 1078      798.076       626.34
 1079      798.445       626.56
 1080      798.813       626.56
 1081      799.182       625.88
 1082       799.55       625.18
 1083      799.919       624.86
 1084      800.287       624.48
 1085      800.655       624.46
 1086      801.023       625.04
 1087      801.391       625.76
 1088      801.759       626.02
 1089      802.127       626.44
 1090      802.495       626.94
 1091      802.862       627.36
 1092       803.23       627.96
 1093      803.597       628.42
 1094      803.964       628.46
 1095      804.331       628.36
 1096      804.698       628.46
 1097      805.065       628.34
 1098      805.432       627.98
 1099      805.799       627.38
 1100      806.165       626.62
 1101      806.532       625.94
 1102      806.898       625.32
 1103      807.264       624.98
 1104      807.631        625.1
 1105      807.997       625.44
 1106      808.363       625.52
 1107      808.728       625.18
 1108      809.094        624.8
 1109       809.46       624.58
 1110      809.825        624.2
 1111      810.191       623.72
 1112      810.556       623.82
 1113      810.921       624.12
 1114      811.286       623.86
 1115      811.651        623.8
 1116      812.016       624.18
 1117      812.381       624.52
 1118      812.745       624.76
 1119       813.11       625.04
 1120      813.474       624.94
 1121      813.839       624.66
 1122      814.203       624.78
 1123      814.567       624.92
 1124      814.931       625.42
 1125      815.295       626.26
 1126      815.659          627
 1127      816.022       627.12
 1128      816.386       627.08
 1129      816.749       626.66
 1130      817.113       626.32
 1131      817.476       626.32
 1132      817.839       626.54
 1133      818.202        626.6
 1134      818.565       627.06
 1135      818.928       627.08
 1136      819.291        626.5
 1137      819.653       625.86
 1138      820.016        625.7
 1139      820.378        625.4
 1140       820.74       624.64
 1141      821.102        623.6
 1142      821.464       622.92
 1143      821.826        622.6
 1144      822.188       622.88
 1145       822.55       623.94
 1146      822.912       625.34
 1147      823.273       626.42
 1148      823.634       626.56
 1149      823.996       625.54
 1150      824.357       624.34
 1151      824.718       623.58
 1152      825.079        623.1
 1153       825.44       623.34
 1154      825.801       624.16
 1155      826.161       624.94
 1156      826.522       625.36
 1157      826.882        625.6
 1158      827.242        625.5
 1159      827.603       625.42
 1160      827.963       625.46
 1161      828.323       625.78
 1162      828.682        625.7
 1163      829.042       625.52
 1164      829.402       625.54
 1165      829.761        625.4
 1166      830.121       624.94
 1167       830.48       624.88
 1168      830.839       625.04
 1169      831.198       624.88
 1170      831.557       624.86
 1171      831.916       625.04
 1172      832.275        625.2
 1173      832.634       624.84
 1174      832.992       624.54
 1175      833.351       624.66
 1176      833.709       625.04
 1177      834.067       625.48
 1178      834.425       626.28
 1179      834.783       626.72
 1180      835.141       626.76
 1181      835.499       626.54
 1182      835.857       625.84
 1183      836.214        625.1
 1184      836.572       624.72
 1185      836.929       624.38
 1186      837.286       623.74
 1187      837.644       623.08
 1188      838.001       622.68
 1189      838.357        622.9
 1190      838.714       623.74
 1191      839.071       624.82
 1192      839.428       625.66
 1193      839.784        625.8
 1194       840.14       625.16
 1195      840.497        624.1
 1196      840.853        623.6
 1197      841.209       623.94
 1198      841.565          625
 1199       841.92       625.88
 1200      842.276       626.02
 1201      842.632        625.7
 1202      842.987       625.02
 1203      843.343        624.3
 1204      843.698       624.34
 1205      844.053       624.76
 1206      844.408        625.4
 1207      844.763       625.72
 1208      845.118        625.5
 1209      845.472       624.92
 1210      845.827       624.44
 1211      846.181        623.6
 1212      846.536       622.88
 1213       846.89        622.7
 1214      847.244        622.6
 1215      847.598       622.64
 1216      847.952       622.82
 1217      848.306       623.64
 1218       848.66       624.12
 1219      849.013          624
 1220      849.367        623.8
 1221       849.72       623.94
 1222      850.073       623.84
 1223      850.427        623.6
 1224       850.78       623.54
 1225      851.133       623.46
 1226      851.485       623.02
 1227      851.838       622.98
 1228      852.191       623.56
 1229      852.543       624.32
 1230      852.896       625.28
 1231      853.248       626.06
 1232        853.6       626.18
 1233      853.952       625.62
 1234      854.304       625.36
 1235      854.656       624.82
 1236      855.007        624.3
 1237      855.359       624.48
 1238       855.71        624.9
 1239      856.062       624.66
 1240      856.413       624.34
 1241      856.764       624.16
 1242      857.115       623.58
 1243      857.466       623.14
 1244      857.817       623.04
 1245      858.168       623.18
 1246      858.518       623.52
 1247      858.869        623.8
 1248      859.219       623.86
 1249      859.569       624.16
 1250       859.92        624.6
 1251       860.27       624.94
 1252      860.619       625.12
 1253      860.969        625.2
 1254      861.319       625.64
 1255      861.669       626.24
 1256      862.018       626.76
 1257      862.367       627.58
 1258      862.717        628.6
 1259      863.066       628.98
 1260      863.415       629.04
 1261      863.764       629.18
 1262      864.112       629.02
 1263      864.461       628.92
 1264       864.81       629.02
 1265      865.158       628.82
 1266      865.507        628.5
 1267      865.855       628.32
 1268      866.203       628.06
 1269      866.551       627.18
 1270      866.899       626.02
 1271      867.247       625.22
 1272      867.594       624.94
 1273      867.942       624.72
 1274      868.289       624.86
 1275      868.637       625.54
 1276      868.984       626.02
 1277      869.331       625.74
 1278      869.678       625.52
 1279      870.025       625.56
 1280      870.372       625.02
 1281      870.718        624.2
 1282      871.065        623.9
 1283      871.411       624.02
 1284      871.758       624.38
 1285      872.104       625.44
 1286       872.45       626.64
 1287      872.796       627.26
 1288      873.142          627
 1289      873.488       626.32
 1290      873.833        625.5
 1291      874.179       625.12
 1292      874.524       625.64
 1293      874.869       626.48
 1294      875.215       627.26
 1295       875.56       628.18
 1296      875.905       628.66
 1297       876.25       628.38
 1298      876.594       628.16
 1299      876.939       628.26
 1300      877.283       628.42
 1301      877.628       628.36
 1302      877.972       628.34
 1303      878.316        628.4
 1304       878.66       627.98
 1305      879.004       626.62
 1306      879.348       624.82
 1307      879.692       623.42
 1308      880.035       622.76
 1309      880.379        622.9
 1310      880.722       623.66
 1311      881.066       625.04
 1312      881.409       625.98
 1313      881.752       626.24
 1314      882.095       626.16
 1315      882.438       626.14
 1316       882.78       626.22
 1317      883.123       626.52
 1318      883.465       626.68
 1319      883.808       626.64
 1320       884.15       626.92
 1321      884.492        627.3
 1322      884.834       627.34
 1323      885.176       627.02
 1324      885.518       626.74
 1325      885.859       626.54
 1326      886.201       626.58
 1327      886.542       626.74
 1328      886.884       626.78
 1329      887.225       626.84
 1330      887.566       626.58
 1331      887.907       626.12
 1332      888.248       626.08
 1333      888.589       626.76
 1334      888.929       627.48
 1335       889.27        628.2
 1336       889.61       628.62
 1337      889.951       628.64
 1338      890.291       628.62
 1339      890.631       628.24
 1340      890.971          627
 1341      891.311       625.72
 1342       891.65       624.84
 1343       891.99        624.2
 1344      892.329        624.2
 1345      892.669       625.04
 1346      893.008       625.98
 1347      893.347       626.66
 1348      893.686       626.84
 1349      894.025        626.8
 1350      894.364       626.86
 1351      894.703       626.96
 1352      895.041       627.02
 1353       895.38       626.88
 1354      895.718       626.48
 1355      896.056       625.92
 1356      896.395       625.58
 1357      896.733        625.6
 1358      897.071          626
 1359      897.408        626.2
 1360      897.746       626.24
 1361      898.084       626.26
 1362      898.421       626.14
 1363      898.758       626.12
 1364      899.095        626.6
 1365      899.433        627.6
 1366       899.77       628.36
 1367      900.106       628.56
 1368      900.443        628.4
 1369       900.78       627.74
 1370      901.116       626.58
 1371      901.453       625.58
 1372      901.789       625.32
 1373      902.125       625.72
 1374      902.461       626.92
 1375      902.797       628.06
 1376      903.133       628.56
 1377      903.469       628.42
 1378      903.804       627.84
 1379       904.14        626.6
 1380      904.475        625.3
 1381       904.81       624.86
 1382      905.146        625.3
 1383      905.481       626.02
 1384      905.815       626.86
 1385       906.15       627.64
 1386      906.485       627.78
 1387      906.819       627.14
 1388      907.154       626.02
 1389      907.488       625.48
 1390      907.822       625.58
 1391      908.156       625.88
 1392       908.49       626.36
 1393      908.824        626.8
 1394      909.158       626.68
 1395      909.492       626.28
 1396      909.825       625.92
 1397      910.159       625.62
 1398      910.492       625.76
 1399      910.825       626.06
 1400      911.158       625.78
 1401      911.491       625.26
 1402      911.824       624.56
 1403      912.157       623.74
 1404      912.489       623.02
 1405      912.822       622.98
 1406      913.154       623.24
 1407      913.486        623.3
 1408      913.818       623.36
 1409       914.15        623.6
 1410      914.482       623.54
 1411      914.814        623.6
 1412      915.146       623.98
 1413      915.477          624
 1414      915.809        623.7
 1415       916.14        623.7
 1416      916.471       623.76
 1417      916.802       623.82
 1418      917.133       624.16
 1419      917.464       624.16
 1420      917.795        623.8
 1421      918.125       623.42
 1422      918.456       623.44
 1423      918.786       623.56
 1424      919.116       623.56
 1425      919.446       623.72
 1426      919.776       623.82
 1427      920.106        623.5
 1428      920.436       623.18
 1429      920.766       623.36
 1430      921.095       623.34
 1431      921.425       623.66
 1432      921.754       624.34
 1433      922.083       625.22
 1434      922.412       626.28
 1435      922.741       626.98
 1436       923.07       626.88
 1437      923.399       626.48
 1438      923.727       625.94
 1439      924.056       625.62
 1440      924.384          626
 1441      924.713       626.64
 1442      925.041        626.9
 1443      925.369       626.92
 1444      925.697       626.36
 1445      926.024        625.6
 1446      926.352       624.84
 1447       926.68       624.66
 1448      927.007       624.76
 1449      927.334        624.9
 1450      927.662       624.72
 1451      927.989       624.52
 1452      928.316       624.32
 1453      928.643       624.14
 1454      928.969        624.1
 1455      929.296       624.52
 1456      929.622        625.2
 1457      929.949        625.7
 1458      930.275       625.68
 1459      930.601        625.8
 1460      930.927       626.12
 1461      931.253       626.08
 1462      931.579       625.76
 1463      931.905       625.68
 1464       932.23       625.46
 1465      932.556       625.22
 1466      932.881       625.24
 1467      933.206       625.74
 1468      933.531       626.18
 1469      933.856       626.34
 1470      934.181       626.12
 1471      934.506       625.54
 1472       934.83       625.16
 1473      935.155       625.24
 1474      935.479        625.4
 1475      935.803       625.64
 1476      936.128       626.06
 1477      936.452       625.96
 1478      936.775       625.02
 1479      937.099       624.28
 1480      937.423       623.88
 1481      937.746       623.58
 1482       938.07       623.56
 1483      938.393       624.08
 1484      938.716       624.52
 1485      939.039       624.84
 1486      939.362       625.16
 1487      939.685       625.24
 1488      940.008       625.64
 1489      940.331       626.26
 1490      940.653       626.78
 1491      940.975        626.7
 1492      941.298       626.28
 1493       941.62        625.8
 1494      941.942       625.28
 1495      942.264       624.84
 1496      942.585       625.02
 1497      942.907        625.6
 1498      943.229        625.8
 1499       943.55       625.54
 1500      943.871       625.02
 1501      944.192       624.88
 1502      944.513       625.16
 1503      944.834       625.24
 1504      945.155        625.7
 1505      945.476        626.6
 1506      945.796       627.02
 1507      946.117       626.54
 1508      946.437       626.04
 1509      946.757       625.56
 1510      947.078       625.02
 1511      947.398        624.7
 1512      947.717        624.9
 1513      948.037       625.32
 1514      948.357       625.88
 1515      948.676       625.94
 1516      948.996       625.84
 1517      949.315       625.88
 1518      949.634       625.84
 1519      949.953       625.48
 1520      950.272       625.34
 1521      950.591        625.1
 1522      950.909       624.34
 1523      951.228       623.76
 1524      951.546       623.28
 1525      951.865        623.2
 1526      952.183        623.4
 1527      952.501       623.72
 1528      952.819       624.12
 1529      953.137       624.62
 1530      953.454       624.78
 1531      953.772       624.78
 1532      954.089       624.86
 1533      954.407       624.86
 1534      954.724       624.74
 1535      955.041       624.96
 1536      955.358       625.56
 1537      955.675       626.44
 1538      955.992       626.74
 1539      956.308       626.72
 1540      956.625       626.36
 1541      956.941       625.62
 1542      957.257       625.02
 1543      957.574        625.1
 1544       957.89        625.7
 1545      958.206       626.08
 1546      958.521       626.14
 1547      958.837       625.72
 1548      959.152       625.48
 1549      959.468        625.1
 1550      959.783       624.68
 1551      960.098       624.82
 1552      960.413        625.2
 1553      960.728       625.44
 1554      961.043       625.58
 1555      961.358       626.08
 1556      961.672       626.54
 1557      961.987       626.86
 1558      962.301       626.64
 1559      962.615       626.04
 1560       962.93       624.78
 1561      963.244        623.3
 1562      963.557       622.36
 1563      963.871       622.04
 1564      964.185       622.46
 1565      964.498       623.86
 1566      964.812        625.3
 1567      965.125       626.18
 1568      965.438       626.84
 1569      965.751       626.88
 1570      966.064       626.34
 1571      966.377        625.6
 1572      966.689       624.86
 1573      967.002        624.3
 1574      967.314       624.12
 1575      967.626       623.94
 1576      967.939       623.58
 1577      968.251       623.24
 1578      968.563       623.02
 1579      968.874        622.8
 1580      969.186       622.92
 1581      969.498        623.5
 1582      969.809       623.44
 1583       970.12       623.04
 1584      970.431          623
 1585      970.743       622.92
 1586      971.053       622.58
 1587      971.364       623.04
 1588      971.675        623.8
 1589      971.986        624.1
 1590      972.296       624.38
 1591      972.606       624.56
 1592      972.917       624.78
 1593      973.227       625.24
 1594      973.537       625.74
 1595      973.847       626.02
 1596      974.156       626.32
 1597      974.466       626.34
 1598      974.775       625.94
 1599      975.085       625.78
 1600      975.394       626.16
 1601      975.703       627.02
 1602      976.012       627.72
 1603      976.321       627.98
 1604       976.63       627.62
 1605      976.938       626.78
 1606      977.247       625.86
 1607      977.555       625.24
 1608      977.863       624.82
 1609      978.172       624.64
 1610       978.48       624.32
 1611      978.787       623.82
 1612      979.095       623.38
 1613      979.403       623.32
 1614       979.71       623.52
 1615      980.018       624.02
 1616      980.325        624.5
 1617      980.632       625.22
 1618      980.939       625.56
 1619      981.246       625.46
 1620      981.553       625.54
 1621       981.86        625.7
 1622      982.166       625.76
 1623      982.473       625.76
 1624      982.779       626.06
 1625      983.085       626.22
 1626      983.391       626.32
 1627      983.697       626.26
 1628      984.003       626.36
 1629      984.309       626.06
 1630      984.614       625.98
 1631       984.92       626.46
 1632      985.225       626.84
 1633       985.53       626.92
 1634      985.835        627.4
 1635       986.14       627.64
 1636      986.445        627.2
 1637       986.75       626.78
 1638      987.054       626.74
 1639      987.359       626.52
 1640      987.663       626.12
 1641      987.967       626.08
 1642      988.271       626.18
 1643      988.575        626.1
 1644      988.879       626.24
 1645      989.183       626.42
 1646      989.487       626.18
 1647       989.79        625.8
 1648      990.093       625.62
 1649      990.397       625.54
 1650        990.7       625.06
 1651      991.003       624.78
 1652      991.306       624.44
 1653      991.608       624.18
 1654      991.911       624.34
 1655      992.213       624.92
 1656      992.516       625.58
 1657      992.818       626.22
 1658       993.12       626.48
 1659      993.422        626.1
 1660      993.724       625.28
 1661      994.026        624.5
 1662      994.327       623.82
 1663      994.629        623.3
 1664       994.93       622.76
 1665      995.232        622.7
 1666      995.533       622.64
 1667      995.834       622.66
 1668      996.135       622.92
 1669      996.435       623.52
 1670      996.736          624
 1671      997.036       624.14
 1672      997.337        624.3
 1673      997.637       624.42
 1674      997.937       624.22
 1675      998.237       624.18
 1676      998.537       624.64
 1677      998.837       625.22
 1678      999.137       625.58
 1679      999.436        626.2
 1680      999.735       626.74
 1681      1000.03       627.26
 1682      1000.33        627.7
 1683      1000.63        627.8
 1684      1000.93        627.8
 1685      1001.23       627.84
 1686      1001.53        627.5
 1687      1001.83       627.06
 1688      1002.13       627.12
 1689      1002.42       626.68
 1690      1002.72       626.16
 1691      1003.02       625.96
 1692      1003.32       625.76
 1693      1003.62       625.64
 1694      1003.91       626.32
 1695      1004.21       627.12
 1696      1004.51        627.3
 1697      1004.81       626.84
 1698       1005.1       626.12
 1699       1005.4       624.92
 1700       1005.7        623.6
 1701      1005.99        622.9
 1702      1006.29       622.84
 1703      1006.59       622.82
 1704      1006.88       622.86
 1705      1007.18       622.98
 1706      1007.48       622.86
 1707      1007.77       622.76
 1708      1008.07       622.66
 1709      1008.36        622.9
 1710      1008.66       623.52
 1711      1008.95       624.26
 1712      1009.25       624.94
 1713      1009.55       625.68
 1714      1009.84       626.32
 1715      1010.14       626.58
 1716      1010.43       626.34
 1717      1010.73       625.86
 1718      1011.02       625.04
 1719      1011.31        623.8
 1720      1011.61       622.74
 1721       1011.9       622.42
 1722       1012.2        622.5
 1723      1012.49       623.16
 1724      1012.79       624.32
 1725      1013.08        625.2
 1726      1013.37        625.5
 1727      1013.67       625.74
 1728      1013.96       626.18
 1729      1014.25       626.54
 1730      1014.55       626.86
 1731      1014.84       627.84
 1732      1015.13       628.58
 1733      1015.42        628.6
 1734      1015.72       628.32
 1735      1016.01       628.18
 1736       1016.3       627.46
 1737      1016.59       626.54
 1738      1016.89        625.5
 1739      1017.18       624.44
 1740      1017.47       623.78
 1741      1017.76        623.6
 1742      1018.05        623.6
 1743      1018.35       623.78
 1744      1018.64       624.52
 1745      1018.93        625.3
 1746      1019.22       625.82
 1747      1019.51       626.36
 1748       1019.8       627.16
 1749      1020.09       627.48
 1750      1020.38       627.34
 1751      1020.67       626.82
 1752      1020.96       626.54
 1753      1021.25        626.2
 1754      1021.54       625.74
 1755      1021.83       625.68
 1756      1022.12       625.78
 1757      1022.41        625.8
 1758       1022.7       626.06
 1759      1022.99       626.48
 1760      1023.28        626.6
 1761      1023.57       626.86
 1762      1023.86       626.96
 1763      1024.15       626.84
 1764      1024.44        626.7
 1765      1024.73        626.7
 1766      1025.02       626.64
 1767       1025.3       626.58
 1768      1025.59       626.72
 1769      1025.88       627.08
 1770      1026.17       627.24
 1771      1026.46       627.36
 1772      1026.74       627.52
 1773      1027.03        627.7
 1774      1027.32       627.86
 1775      1027.61       627.94
 1776      1027.89       628.28
 1777      1028.18       628.66
 1778      1028.47        628.5
 1779      1028.76       627.94
 1780      1029.04       627.34
 1781      1029.33       626.86
 1782      1029.62        626.4
 1783       1029.9        626.1
 1784      1030.19       626.18
 1785      1030.47       626.62
 1786      1030.76       626.82
 1787      1031.05       626.96
 1788      1031.33        627.3
 1789      1031.62       627.56
 1790       1031.9        627.1
 1791      1032.19       626.18
 1792      1032.47       625.06
 1793      1032.76       623.82
 1794      1033.04       622.96
 1795      1033.33       622.48
 1796      1033.61       622.26
 1797       1033.9       622.38
 1798      1034.18       622.34
 1799      1034.47       622.04
 1800      1034.75       622.36
 1801      1035.04       622.88
 1802      1035.32        623.3
 1803       1035.6       624.26
 1804      1035.89       625.56
 1805      1036.17       626.42
 1806      1036.45       627.24
 1807      1036.74       627.92
 1808      1037.02       628.24
 1809       1037.3       628.16
 1810      1037.59        627.9
 1811      1037.87        627.5
 1812      1038.15       627.32
 1813      1038.44       627.18
 1814      1038.72       626.98
 1815         1039       626.68
 1816      1039.28       626.42
 1817      1039.56       626.02
 1818      1039.85       625.96
 1819      1040.13       625.68
 1820      1040.41       625.58
 1821      1040.69       625.62
 1822      1040.97       625.52
 1823      1041.25       624.78
 1824      1041.54       624.52
 1825      1041.82       624.44
 1826       1042.1       624.46
 1827      1042.38       624.58
 1828      1042.66       624.68
 1829      1042.94       624.24
 1830      1043.22       623.98
 1831       1043.5       624.06
 1832      1043.78       624.22
 1833      1044.06       624.68
 1834      1044.34       624.96
 1835      1044.62       625.02
 1836       1044.9       624.72
 1837      1045.18       624.48
 1838      1045.46        624.6
 1839      1045.74       625.22
 1840      1046.02       625.66
 1841       1046.3       626.14
 1842      1046.58       626.48
 1843      1046.85       626.76
 1844      1047.13       626.88
 1845      1047.41        626.6
 1846      1047.69       625.94
 1847      1047.97        625.5
 1848      1048.25       624.94
 1849      1048.52       624.38
 1850       1048.8        624.5
 1851      1049.08       625.34
 1852      1049.36       625.94
 1853      1049.63       625.86
 1854      1049.91        626.1
 1855      1050.19       626.42
 1856      1050.47       625.88
 1857      1050.74        625.3
 1858      1051.02        625.1
 1859       1051.3       624.72
 1860      1051.57       623.92
 1861      1051.85       623.48
 1862      1052.13        623.2
 1863       1052.4       622.88
 1864      1052.68       622.78
 1865      1052.95       623.14
 1866      1053.23       623.62
 1867      1053.51       624.32
 1868      1053.78       625.02
 1869      1054.06       625.14
 1870      1054.33       624.64
 1871      1054.61          624
 1872      1054.88       623.36
 1873      1055.16       622.72
 1874      1055.43       622.26
 1875      1055.71       622.08
 1876      1055.98       621.86
 1877      1056.25        621.5
 1878      1056.53       621.78
 1879       1056.8        622.2
 1880      1057.08       622.44
 1881      1057.35       622.86
 1882      1057.62       623.04
 1883       1057.9       622.64
 1884      1058.17       622.14
 1885      1058.45       621.98
 1886      1058.72       622.08
 1887      1058.99       622.48
 1888      1059.26       623.38
 1889      1059.54       624.42
 1890      1059.81       625.04
 1891      1060.08       625.26
 1892      1060.35       625.18
 1893      1060.63       624.74
 1894       1060.9       624.02
 1895      1061.17       623.62
 1896      1061.44       623.74
 1897      1061.71       624.48
 1898      1061.99          625
 1899      1062.26       625.08
 1900      1062.53       625.32
 1901       1062.8        625.7
 1902      1063.07       625.54
 1903      1063.34       625.34
 1904      1063.61        625.9
 1905      1063.88       626.14
 1906      1064.15       625.52
 1907      1064.42       625.24
 1908       1064.7       625.86
 1909      1064.97       626.18
 1910      1065.24       626.02
 1911      1065.51       626.36
 1912      1065.78       626.62
 1913      1066.04       626.06
 1914      1066.31       625.76
 1915      1066.58       625.86
 1916      1066.85        625.6
 1917      1067.12       625.38
 1918      1067.39       625.24
 1919      1067.66       624.84
 1920      1067.93       624.56
 1921       1068.2       624.56
 1922      1068.47       624.36
 1923      1068.73       624.58
 1924         1069       624.88
 1925      1069.27       624.76
 1926      1069.54       624.68
 1927      1069.81       624.42
 1928      1070.07       623.68
 1929      1070.34       623.58
 1930      1070.61       624.36
 1931      1070.88       624.96
 1932      1071.14        625.3
 1933      1071.41        625.7
 1934      1071.68       625.72
 1935      1071.94        625.3
 1936      1072.21       624.98
 1937      1072.48       625.08
 1938      1072.74          625
 1939      1073.01       624.68
 1940      1073.28       624.44
 1941      1073.54        623.9
 1942      1073.81       623.48
 1943      1074.07       623.76
 1944      1074.34       624.38
 1945       1074.6       624.82
 1946      1074.87       625.44
 1947      1075.13       626.18
 1948       1075.4       626.42
 1949      1075.66       626.26
 1950      1075.93       626.44
 1951      1076.19        626.8
 1952      1076.46       626.86
 1953      1076.72       627.08
 1954      1076.99       627.58
 1955      1077.25       627.54
 1956      1077.52        626.9
 1957      1077.78       626.18
 1958      1078.04       625.58
 1959      1078.31       624.82
 1960      1078.57       624.26
 1961      1078.83       624.18
 1962       1079.1       624.44
 1963      1079.36       624.92
 1964      1079.62       625.86
 1965      1079.89       626.74
 1966      1080.15       627.04
 1967      1080.41        627.2
 1968      1080.67        626.9
 1969      1080.94       626.12
 1970       1081.2       625.32
 1971      1081.46       624.82
 1972      1081.72       624.18
 1973      1081.98       623.72
 1974      1082.24       623.44
 1975      1082.51       623.32
 1976      1082.77       623.48
 1977      1083.03       623.64
 1978      1083.29        623.7
 1979      1083.55       623.72
 1980      1083.81       623.46
 1981      1084.07       623.04
 1982      1084.33       623.08
 1983      1084.59       623.42
 1984      1084.85       623.82
 1985      1085.11          624
 1986      1085.37        624.3
 1987      1085.63       624.38
 1988      1085.89       624.56
 1989      1086.15       624.76
 1990      1086.41       625.48
 1991      1086.67       626.44
 1992      1086.93       627.16
 1993      1087.19        627.1
 1994      1087.45       627.04
 1995      1087.71       627.32
 1996      1087.97       626.94
 1997      1088.23       626.02
 1998      1088.48       625.12
 1999      1088.74       623.92
 2000         1089       622.66
 2001      1089.26       622.54
 2002      1089.52       622.96
 2003      1089.77       623.12
 2004      1090.03       623.66
 2005      1090.29       624.48
 2006      1090.55       624.56
 2007       1090.8        624.5
 2008      1091.06        624.5
 2009      1091.32       624.48
 2010      1091.57       624.42
 2011      1091.83       624.08
 2012      1092.09       623.94
 2013      1092.34       624.82
 2014       1092.6       625.32
 2015      1092.86       625.22
 2016      1093.11       625.12
 2017      1093.37       624.76
 2018      1093.62        624.2
 2019      1093.88       623.94
 2020      1094.13       623.98
 2021      1094.39       624.32
 2022      1094.65       625.04
 2023       1094.9       625.92
 2024      1095.16        626.9
 2025      1095.41       627.54
 2026      1095.66       627.92
 2027      1095.92       627.98
 2028      1096.17       627.34
 2029      1096.43          626
 2030      1096.68       624.58
 2031      1096.94       623.78
 2032      1097.19       623.74
 2033      1097.44       623.72
 2034       1097.7       623.66
 2035      1097.95       623.76
 2036       1098.2       623.66
 2037      1098.46        623.3
 2038      1098.71        623.5
 2039      1098.96       624.42
 2040      1099.22       625.34
 2041      1099.47       626.26
 2042      1099.72       626.94
 2043      1099.97          627
 2044      1100.23       626.66
 2045      1100.48       626.64
 2046      1100.73        626.4
 2047      1100.98      626.033
