scansci Spectrometer Data File
--- Measurement Setting ---
Type: Sample Spectrum
Date: Mon Oct 16 16:50:52 2023
User: (Reserved by scansci)
Serial: (Reserved by scansci)
Channel: No. 11
Integration Time: 1
Average: 10
Boxcar: 2
Electrical Dark: No-corrected
Time Normalize: (Reserved by scansci)
Dual-beam: (Reserved by scansci)
Reference Ch: (Reserved by scansci)
--- Measurement Data ---
Pixel   Wavelength   Intensity
    0        162.5      611.533
    1      162.985          611
    2      163.469       610.66
    3      163.954        610.5
    4      164.439       610.24
    5      164.923       609.64
    6      165.408       609.06
    7      165.892       608.34
    8      166.377       607.38
    9      166.861       605.98
   10      167.345       604.78
   11       167.83       604.36
   12      168.314       604.44
   13      168.798       604.48
   14      169.282       604.98
   15      169.766       605.82
   16       170.25        606.2
   17      170.734        606.1
   18      171.218       606.46
   19      171.702       607.38
   20      172.185        607.8
   21      172.669       608.08
   22      173.153       608.36
   23      173.636       608.48
   24       174.12        608.3
   25      174.603       607.92
   26      175.087       607.86
   27       175.57        608.1
   28      176.053       607.82
   29      176.537       607.16
   30       177.02        607.3
   31      177.503        607.6
   32      177.986       607.52
   33      178.469       608.04
   34      178.952        609.1
   35      179.435       610.32
   36      179.918       611.16
   37      180.401       612.28
   38      180.884        613.1
   39      181.366       612.68
   40      181.849       611.68
   41      182.332       610.74
   42      182.814       609.82
   43      183.297       609.06
   44      183.779       609.04
   45      184.262       609.62
   46      184.744       610.16
   47      185.226       610.12
   48      185.708       609.96
   49      186.191       610.04
   50      186.673       610.12
   51      187.155       610.38
   52      187.637       610.84
   53      188.119       611.28
   54        188.6       611.72
   55      189.082        611.5
   56      189.564       611.08
   57      190.046       611.06
   58      190.527        610.9
   59      191.009       610.22
   60      191.491       609.54
   61      191.972        609.2
   62      192.454       609.06
   63      192.935       608.66
   64      193.416       607.96
   65      193.897       607.72
   66      194.379       607.54
   67       194.86       606.98
   68      195.341       606.66
   69      195.822        606.9
   70      196.303       607.12
   71      196.784       607.14
   72      197.265        607.7
   73      197.746        608.7
   74      198.226       609.54
   75      198.707       609.98
   76      199.188       610.24
   77      199.668        609.9
   78      200.149       609.18
   79      200.629       608.66
   80       201.11        608.6
   81       201.59       608.98
   82       202.07       609.24
   83       202.55       609.52
   84      203.031       609.52
   85      203.511       608.96
   86      203.991       607.94
   87      204.471       606.78
   88      204.951       605.76
   89      205.431        605.2
   90       205.91       604.78
   91       206.39       604.16
   92       206.87       604.12
   93      207.349       604.32
   94      207.829       604.96
   95      208.309       605.88
   96      208.788       607.22
   97      209.267       608.62
   98      209.747       609.78
   99      210.226        609.5
  100      210.705        608.8
  101      211.185        608.4
  102      211.664       607.74
  103      212.143        607.1
  104      212.622       606.66
  105      213.101       606.12
  106      213.579        605.6
  107      214.058        605.6
  108      214.537        606.3
  109      215.016       607.92
  110      215.494       609.78
  111      215.973        611.4
  112      216.452       612.28
  113       216.93       611.72
  114      217.408       610.42
  115      217.887       608.76
  116      218.365       606.86
  117      218.843        605.2
  118      219.321        604.1
  119      219.799       603.76
  120      220.278       603.76
  121      220.755       603.62
  122      221.233        603.5
  123      221.711       603.58
  124      222.189       603.58
  125      222.667       603.76
  126      223.144        604.2
  127      223.622       605.02
  128        224.1        605.7
  129      224.577        605.7
  130      225.055        605.5
  131      225.532       605.22
  132      226.009       604.44
  133      226.486       603.98
  134      226.964       604.86
  135      227.441       606.18
  136      227.918       607.18
  137      228.395       608.14
  138      228.872       608.84
  139      229.349       608.78
  140      229.826       608.84
  141      230.302       608.84
  142      230.779       609.14
  143      231.256       610.02
  144      231.732       610.98
  145      232.209       611.16
  146      232.685       611.74
  147      233.162       611.72
  148      233.638       610.34
  149      234.114       608.06
  150       234.59       606.12
  151      235.066       604.58
  152      235.543       603.86
  153      236.019       604.24
  154      236.495       605.54
  155       236.97       606.86
  156      237.446       608.18
  157      237.922       609.58
  158      238.398        610.5
  159      238.873       610.54
  160      239.349       610.04
  161      239.824       608.86
  162        240.3       607.38
  163      240.775       606.36
  164      241.251       606.16
  165      241.726       606.54
  166      242.201       607.12
  167      242.676       607.66
  168      243.151          608
  169      243.626       607.94
  170      244.101       607.76
  171      244.576        607.7
  172      245.051       607.44
  173      245.526       607.08
  174          246       607.36
  175      246.475       607.12
  176       246.95       606.36
  177      247.424       605.88
  178      247.899       605.54
  179      248.373       604.38
  180      248.847       603.88
  181      249.321       604.46
  182      249.796       605.08
  183       250.27       605.14
  184      250.744       605.06
  185      251.218       605.02
  186      251.692        604.6
  187      252.166       604.08
  188      252.639       604.56
  189      253.113       605.72
  190      253.587       607.02
  191       254.06       608.32
  192      254.534       609.06
  193      255.007        608.5
  194      255.481       607.36
  195      255.954       606.22
  196      256.427        605.3
  197      256.901       604.76
  198      257.374       604.54
  199      257.847        604.4
  200       258.32       604.18
  201      258.793        603.5
  202      259.266       602.56
  203      259.739       602.22
  204      260.211       602.54
  205      260.684       602.66
  206      261.157       602.66
  207      261.629       603.04
  208      262.102       603.18
  209      262.574       603.14
  210      263.046        603.6
  211      263.519       604.78
  212      263.991        605.9
  213      264.463        606.9
  214      264.935        608.3
  215      265.407       609.14
  216      265.879       609.22
  217      266.351        609.1
  218      266.823       608.92
  219      267.295       607.94
  220      267.766       606.92
  221      268.238       606.28
  222       268.71          606
  223      269.181       606.14
  224      269.653       606.26
  225      270.124       606.22
  226      270.595        606.2
  227      271.066       606.04
  228      271.538       605.44
  229      272.009       605.16
  230       272.48       604.98
  231      272.951       604.74
  232      273.422       604.68
  233      273.892       604.98
  234      274.363       605.52
  235      274.834       606.34
  236      275.305        606.9
  237      275.775       606.76
  238      276.246        606.1
  239      276.716       604.78
  240      277.186       603.54
  241      277.657       602.76
  242      278.127       602.78
  243      278.597       603.72
  244      279.067       605.14
  245      279.537       606.32
  246      280.007       607.08
  247      280.477       607.36
  248      280.947        607.1
  249      281.417       606.86
  250      281.886       606.76
  251      282.356       606.72
  252      282.825       606.36
  253      283.295       605.96
  254      283.764       605.84
  255      284.234       605.74
  256      284.703        605.5
  257      285.172       605.68
  258      285.641       606.16
  259       286.11       606.16
  260      286.579       605.56
  261      287.048       605.12
  262      287.517       605.14
  263      287.986       605.42
  264      288.454       605.98
  265      288.923       606.34
  266      289.392       606.64
  267       289.86        607.1
  268      290.329       607.14
  269      290.797       607.18
  270      291.265       608.28
  271      291.734       609.48
  272      292.202       609.72
  273       292.67       609.54
  274      293.138        609.4
  275      293.606       608.96
  276      294.074        608.2
  277      294.541       607.52
  278      295.009       606.76
  279      295.477       605.28
  280      295.944          604
  281      296.412       603.42
  282      296.879       603.36
  283      297.347        603.5
  284      297.814       604.18
  285      298.281       604.98
  286      298.749       605.34
  287      299.216        605.3
  288      299.683        605.3
  289       300.15       605.12
  290      300.616       604.66
  291      301.083       604.62
  292       301.55       604.92
  293      302.017       605.18
  294      302.483       605.38
  295       302.95       605.26
  296      303.416       604.98
  297      303.883       604.96
  298      304.349       605.12
  299      304.815       605.26
  300      305.281       605.76
  301      305.748        606.2
  302      306.214        606.3
  303       306.68       606.42
  304      307.146       606.48
  305      307.611       605.96
  306      308.077       605.16
  307      308.543       604.48
  308      309.008       604.12
  309      309.474       604.12
  310      309.939       604.16
  311      310.405       603.78
  312       310.87       603.48
  313      311.335       603.44
  314        311.8       603.24
  315      312.266       603.08
  316      312.731       603.54
  317      313.196        604.7
  318       313.66       606.04
  319      314.125        607.8
  320       314.59       609.94
  321      315.055       611.74
  322      315.519       612.34
  323      315.984       611.56
  324      316.448       610.12
  325      316.913          609
  326      317.377       608.06
  327      317.841       606.86
  328      318.305       606.12
  329      318.769       605.84
  330      319.233       605.58
  331      319.697       605.76
  332      320.161        606.4
  333      320.625       607.08
  334      321.089        607.4
  335      321.552       607.34
  336      322.016       606.94
  337      322.479       606.28
  338      322.943        605.5
  339      323.406       604.72
  340      323.869        604.2
  341      324.333       604.04
  342      324.796       604.54
  343      325.259       604.78
  344      325.722       604.56
  345      326.185        604.4
  346      326.647        604.4
  347       327.11       604.18
  348      327.573        604.6
  349      328.035       605.92
  350      328.498       606.78
  351       328.96        606.5
  352      329.423        606.3
  353      329.885        606.2
  354      330.347       605.98
  355       330.81        606.1
  356      331.272       606.54
  357      331.734        606.2
  358      332.196       605.66
  359      332.657       605.36
  360      333.119       605.32
  361      333.581       605.96
  362      334.043       607.04
  363      334.504          608
  364      334.966       608.46
  365      335.427       608.16
  366      335.888       607.44
  367       336.35       606.88
  368      336.811       606.44
  369      337.272       606.62
  370      337.733       607.48
  371      338.194       608.02
  372      338.655       608.56
  373      339.115       609.26
  374      339.576       608.78
  375      340.037        607.8
  376      340.497       607.48
  377      340.958       607.28
  378      341.418       606.46
  379      341.879        606.1
  380      342.339       606.48
  381      342.799       606.76
  382      343.259        606.9
  383      343.719       607.38
  384      344.179       608.28
  385      344.639       608.58
  386      345.099       608.62
  387      345.559        608.3
  388      346.018       607.48
  389      346.478       606.12
  390      346.937        604.6
  391      347.397       603.38
  392      347.856       603.04
  393      348.315       603.32
  394      348.774        603.3
  395      349.234        603.3
  396      349.693        603.7
  397      350.152        603.5
  398       350.61        602.9
  399      351.069       602.82
  400      351.528       602.92
  401      351.987        602.9
  402      352.445       603.22
  403      352.904        603.8
  404      353.362       604.36
  405       353.82       604.76
  406      354.279       604.48
  407      354.737       603.84
  408      355.195       603.76
  409      355.653       604.08
  410      356.111       604.38
  411      356.569       604.52
  412      357.027       604.48
  413      357.484       604.14
  414      357.942       603.94
  415      358.399          604
  416      358.857       604.38
  417      359.314       605.16
  418      359.772       605.98
  419      360.229       606.38
  420      360.686       606.62
  421      361.143       606.72
  422        361.6       606.52
  423      362.057       605.94
  424      362.514       605.48
  425      362.971       605.04
  426      363.427       604.42
  427      363.884       603.74
  428       364.34       603.24
  429      364.797       603.02
  430      365.253       602.98
  431      365.709       603.18
  432      366.166       603.62
  433      366.622        604.2
  434      367.078        604.6
  435      367.534       604.92
  436       367.99       605.06
  437      368.445       605.06
  438      368.901       605.12
  439      369.357        605.2
  440      369.812        605.2
  441      370.268       605.44
  442      370.723       606.06
  443      371.179       606.54
  444      371.634       606.64
  445      372.089        606.9
  446      372.544        607.6
  447      372.999       607.68
  448      373.454       607.22
  449      373.909       606.76
  450      374.364       606.36
  451      374.818       604.86
  452      375.273       603.28
  453      375.727       602.26
  454      376.182       601.52
  455      376.636        600.9
  456       377.09       601.18
  457      377.545       601.82
  458      377.999       602.06
  459      378.453       602.24
  460      378.907       602.38
  461      379.361       602.52
  462      379.814       602.38
  463      380.268       602.06
  464      380.722        602.1
  465      381.175        602.7
  466      381.629        603.5
  467      382.082        604.5
  468      382.535       606.16
  469      382.989       606.92
  470      383.442       606.66
  471      383.895       606.22
  472      384.348       606.18
  473      384.801        605.6
  474      385.253       604.96
  475      385.706       604.72
  476      386.159        604.4
  477      386.611        604.1
  478      387.064       604.26
  479      387.516       604.82
  480      387.968       605.54
  481      388.421       606.42
  482      388.873       606.76
  483      389.325        606.9
  484      389.777       607.14
  485      390.229       606.96
  486      390.681       606.58
  487      391.132       606.06
  488      391.584       605.16
  489      392.035       604.32
  490      392.487       603.94
  491      392.938        603.6
  492       393.39          604
  493      393.841        604.5
  494      394.292       604.66
  495      394.743       604.72
  496      395.194        604.8
  497      395.645        604.6
  498      396.096       604.52
  499      396.546       605.14
  500      396.997       605.68
  501      397.448       605.88
  502      397.898       605.62
  503      398.349        605.7
  504      398.799       605.54
  505      399.249       605.88
  506      399.699       606.76
  507      400.149       607.52
  508      400.599       607.78
  509      401.049       607.84
  510      401.499       607.36
  511      401.949       606.32
  512      402.398        605.7
  513      402.848        605.8
  514      403.297       605.92
  515      403.747        605.6
  516      404.196       605.56
  517      404.645       605.48
  518      405.094       604.88
  519      405.543       604.24
  520      405.992       603.86
  521      406.441       603.14
  522       406.89       602.88
  523      407.339       602.72
  524      407.787       602.44
  525      408.236          602
  526      408.684       602.08
  527      409.132        602.3
  528      409.581       602.92
  529      410.029       603.84
  530      410.477       605.06
  531      410.925       605.64
  532      411.373       605.66
  533      411.821       605.26
  534      412.269       604.92
  535      412.716        604.2
  536      413.164        603.5
  537      413.611       603.14
  538      414.059       603.44
  539      414.506       604.16
  540      414.953       605.28
  541        415.4       606.94
  542      415.847        608.7
  543      416.294       609.88
  544      416.741       610.08
  545      417.188       609.94
  546      417.635       609.62
  547      418.081       608.86
  548      418.528        607.6
  549      418.974        606.5
  550      419.421       606.52
  551      419.867       606.84
  552      420.313       607.44
  553      420.759       608.78
  554      421.205       610.16
  555      421.651        610.5
  556      422.097       610.64
  557      422.543       610.76
  558      422.989       611.22
  559      423.434       612.04
  560       423.88       612.62
  561      424.325          613
  562       424.77       613.22
  563      425.216       612.94
  564      425.661        612.7
  565      426.106       612.94
  566      426.551       613.44
  567      426.996        613.9
  568       427.44       614.38
  569      427.885       614.64
  570       428.33       614.82
  571      428.774       614.98
  572      429.219        615.2
  573      429.663       615.42
  574      430.107       615.82
  575      430.551       616.18
  576      430.996       616.34
  577       431.44       616.76
  578      431.883       617.82
  579      432.327        619.1
  580      432.771       620.48
  581      433.215       621.78
  582      433.658       623.02
  583      434.102        623.8
  584      434.545       624.46
  585      434.988       625.12
  586      435.431       625.78
  587      435.875       626.52
  588      436.318       627.38
  589      436.761       628.28
  590      437.203        629.4
  591      437.646       630.68
  592      438.089       631.92
  593      438.531        632.7
  594      438.974        633.3
  595      439.416       634.42
  596      439.859       636.04
  597      440.301       637.44
  598      440.743        639.1
  599      441.185       640.56
  600      441.627       641.26
  601      442.069       642.12
  602       442.51       643.58
  603      442.952       645.14
  604      443.394        646.7
  605      443.835       648.58
  606      444.277       650.24
  607      444.718       650.68
  608      445.159       650.76
  609        445.6        651.7
  610      446.041       653.34
  611      446.482       655.28
  612      446.923        658.5
  613      447.364       662.36
  614      447.804       665.62
  615      448.245       667.96
  616      448.685       670.02
  617      449.126       672.04
  618      449.566       674.06
  619      450.006       676.12
  620      450.447       678.54
  621      450.887       681.12
  622      451.326       682.92
  623      451.766       684.18
  624      452.206       686.16
  625      452.646        688.2
  626      453.085        690.1
  627      453.525       692.84
  628      453.964       696.24
  629      454.403        698.8
  630      454.843        700.9
  631      455.282       702.62
  632      455.721       703.18
  633       456.16       703.12
  634      456.599        703.1
  635      457.037       703.02
  636      457.476        703.2
  637      457.915       703.58
  638      458.353       703.44
  639      458.791       703.04
  640       459.23       702.48
  641      459.668       701.78
  642      460.106       701.28
  643      460.544        701.7
  644      460.982       702.44
  645       461.42       702.66
  646      461.857        702.2
  647      462.295       701.34
  648      462.733        699.6
  649       463.17       697.42
  650      463.607       695.64
  651      464.045       694.36
  652      464.482       692.96
  653      464.919       691.48
  654      465.356       690.32
  655      465.793       688.94
  656       466.23       687.28
  657      466.666        686.1
  658      467.103       685.44
  659      467.539       684.74
  660      467.976       684.26
  661      468.412       683.74
  662      468.848       682.94
  663      469.284       681.74
  664       469.72        680.4
  665      470.156       679.44
  666      470.592        678.3
  667      471.028       677.16
  668      471.464       676.28
  669      471.899       675.76
  670      472.335       674.92
  671       472.77       674.38
  672      473.205       674.38
  673      473.641       674.68
  674      474.076       674.98
  675      474.511       674.92
  676      474.946        674.6
  677       475.38       673.82
  678      475.815        672.7
  679       476.25       671.26
  680      476.684       669.98
  681      477.119       668.62
  682      477.553       667.32
  683      477.987       666.66
  684      478.421        666.7
  685      478.856       666.82
  686      479.289       666.72
  687      479.723       666.78
  688      480.157       666.18
  689      480.591        664.6
  690      481.024       663.18
  691      481.458       662.08
  692      481.891       661.04
  693      482.324       660.68
  694      482.758       660.84
  695      483.191       660.86
  696      483.624       661.08
  697      484.057       661.58
  698      484.489       661.42
  699      484.922       661.12
  700      485.355       661.36
  701      485.787       662.14
  702       486.22       663.06
  703      486.652       664.04
  704      487.084       665.04
  705      487.516        665.6
  706      487.948       666.08
  707       488.38       666.34
  708      488.812       666.82
  709      489.244       667.02
  710      489.676       667.38
  711      490.107       667.74
  712      490.539          668
  713       490.97          668
  714      491.401        668.1
  715      491.832       668.58
  716      492.263       668.94
  717      492.694        669.5
  718      493.125       671.04
  719      493.556       672.52
  720      493.987       673.26
  721      494.417       674.38
  722      494.848       675.76
  723      495.278       676.52
  724      495.708       677.48
  725      496.139       678.72
  726      496.569       680.02
  727      496.999       681.12
  728      497.429       682.28
  729      497.858       683.54
  730      498.288       684.22
  731      498.718       684.06
  732      499.147       683.74
  733      499.577       683.22
  734      500.006        682.8
  735      500.435       683.22
  736      500.864       684.04
  737      501.293       684.98
  738      501.722       686.24
  739      502.151       687.58
  740       502.58       688.68
  741      503.008       689.54
  742      503.437       690.26
  743      503.865        690.7
  744      504.293       690.58
  745      504.722       690.36
  746       505.15       690.56
  747      505.578       691.24
  748      506.006        692.5
  749      506.434       694.32
  750      506.861       695.84
  751      507.289       696.96
  752      507.716        697.6
  753      508.144       696.96
  754      508.571       695.72
  755      508.998       694.76
  756      509.425       694.16
  757      509.852        694.3
  758      510.279       695.24
  759      510.706       696.62
  760      511.133       698.56
  761       511.56       700.32
  762      511.986          701
  763      512.412       700.88
  764      512.839       700.96
  765      513.265       701.12
  766      513.691       701.34
  767      514.117       701.58
  768      514.543       702.26
  769      514.969       702.88
  770      515.395          703
  771       515.82        703.1
  772      516.246       703.62
  773      516.671       704.24
  774      517.096       704.38
  775      517.522       704.58
  776      517.947       704.38
  777      518.372        703.7
  778      518.797       703.76
  779      519.222       704.28
  780      519.646       704.58
  781      520.071        705.2
  782      520.495       706.44
  783       520.92       707.04
  784      521.344       707.54
  785      521.768       708.24
  786      522.192       708.68
  787      522.616          709
  788       523.04       709.34
  789      523.464       709.24
  790      523.888       708.72
  791      524.311       708.38
  792      524.735       708.14
  793      525.158       708.12
  794      525.581       708.68
  795      526.005        709.8
  796      526.428       711.24
  797      526.851       712.78
  798      527.274       714.42
  799      527.696       715.24
  800      528.119       715.36
  801      528.542        714.7
  802      528.964       713.84
  803      529.386       712.68
  804      529.809       711.22
  805      530.231       710.68
  806      530.653       711.12
  807      531.075       711.58
  808      531.497       712.66
  809      531.918       714.88
  810       532.34       716.28
  811      532.761       716.52
  812      533.183       716.82
  813      533.604       716.62
  814      534.025       716.18
  815      534.447       716.26
  816      534.868       717.46
  817      535.289       718.76
  818      535.709       719.72
  819       536.13        720.6
  820      536.551       721.56
  821      536.971       721.64
  822      537.392       721.34
  823      537.812       721.02
  824      538.232       721.02
  825      538.652       721.02
  826      539.072       721.26
  827      539.492       721.96
  828      539.912        722.9
  829      540.331       723.46
  830      540.751        723.9
  831       541.17        724.6
  832       541.59       724.64
  833      542.009       724.34
  834      542.428          724
  835      542.847       723.64
  836      543.266       723.52
  837      543.685        723.8
  838      544.104       724.54
  839      544.522        724.7
  840      544.941       724.72
  841      545.359       725.22
  842      545.778        725.9
  843      546.196       726.74
  844      546.614       728.82
  845      547.032       731.04
  846       547.45       732.04
  847      547.867       732.34
  848      548.285       732.22
  849      548.703       731.92
  850       549.12        732.5
  851      549.538       734.02
  852      549.955       735.74
  853      550.372       737.68
  854      550.789       739.56
  855      551.206        740.9
  856      551.623        742.2
  857      552.039       744.22
  858      552.456        746.2
  859      552.873       747.94
  860      553.289       750.04
  861      553.705       751.66
  862      554.121       752.44
  863      554.537       753.86
  864      554.953       756.02
  865      555.369       757.96
  866      555.785       760.28
  867      556.201       763.26
  868      556.616       765.96
  869      557.032       768.44
  870      557.447       770.86
  871      557.862       773.58
  872      558.277       776.68
  873      558.692        780.3
  874      559.107       783.68
  875      559.522       786.92
  876      559.937       790.62
  877      560.351       794.08
  878      560.766       796.76
  879       561.18       799.42
  880      561.595        801.8
  881      562.009       803.44
  882      562.423       804.88
  883      562.837       805.94
  884       563.25       807.14
  885      563.664       808.92
  886      564.078       810.78
  887      564.491        812.3
  888      564.905       813.56
  889      565.318        814.5
  890      565.731       815.52
  891      566.144        816.4
  892      566.557       817.42
  893       566.97        818.9
  894      567.383       821.02
  895      567.795       822.88
  896      568.208       824.22
  897       568.62       825.54
  898      569.033        827.2
  899      569.445        828.4
  900      569.857        829.9
  901      570.269       832.12
  902      570.681        834.6
  903      571.093       837.22
  904      571.504       840.28
  905      571.916       843.46
  906      572.327       846.74
  907      572.739        849.6
  908       573.15       852.26
  909      573.561       854.42
  910      573.972       855.36
  911      574.383        856.1
  912      574.794       857.68
  913      575.204        859.2
  914      575.615       861.58
  915      576.025       865.54
  916      576.436       869.34
  917      576.846       871.46
  918      577.256       872.78
  919      577.666       873.42
  920      578.076        873.8
  921      578.486       874.68
  922      578.896        876.7
  923      579.305       879.28
  924      579.715       881.22
  925      580.124       882.44
  926      580.533       883.74
  927      580.942       884.96
  928      581.351       886.16
  929       581.76       887.18
  930      582.169        887.7
  931      582.578       888.12
  932      582.986        888.5
  933      583.395        888.6
  934      583.803       889.04
  935      584.212       889.78
  936       584.62       889.78
  937      585.028       889.48
  938      585.436        889.8
  939      585.843       890.54
  940      586.251       890.82
  941      586.659       890.32
  942      587.066       889.76
  943      587.474       889.26
  944      587.881       888.42
  945      588.288       887.74
  946      588.695        887.7
  947      589.102       888.64
  948      589.509       889.78
  949      589.915        890.3
  950      590.322        890.5
  951      590.728       890.68
  952      591.135       889.82
  953      591.541        888.2
  954      591.947       886.66
  955      592.353       885.96
  956      592.759       885.88
  957      593.165       885.86
  958      593.571       886.08
  959      593.976        886.6
  960      594.382       886.76
  961      594.787       885.86
  962      595.192        884.3
  963      595.597       882.54
  964      596.002       881.02
  965      596.407       879.72
  966      596.812       878.92
  967      597.217        878.2
  968      597.621       877.28
  969      598.026       876.04
  970       598.43       874.32
  971      598.834       872.56
  972      599.238       871.36
  973      599.642       870.26
  974      600.046       868.76
  975       600.45       867.44
  976      600.854       866.54
  977      601.257       866.24
  978      601.661       866.12
  979      602.064        866.5
  980      602.467       867.12
  981       602.87       867.62
  982      603.273       867.06
  983      603.676          866
  984      604.079       865.06
  985      604.481       863.36
  986      604.884       860.64
  987      605.286       858.42
  988      605.689        856.7
  989      606.091        854.9
  990      606.493        854.3
  991      606.895       854.82
  992      607.297       855.28
  993      607.698       855.06
  994        608.1       854.26
  995      608.501        852.4
  996      608.903       849.78
  997      609.304       847.52
  998      609.705       845.84
  999      610.106       844.08
 1000      610.507       842.52
 1001      610.908       841.24
 1002      611.308       839.54
 1003      611.709       837.56
 1004      612.109       836.12
 1005       612.51       835.24
 1006       612.91        834.1
 1007       613.31       832.24
 1008       613.71        830.4
 1009       614.11       828.52
 1010       614.51       826.46
 1011      614.909       825.46
 1012      615.309        825.6
 1013      615.708       826.32
 1014      616.108       826.86
 1015      616.507          827
 1016      616.906       826.06
 1017      617.305       823.52
 1018      617.704       820.36
 1019      618.102       817.56
 1020      618.501        814.6
 1021      618.899       811.46
 1022      619.298       809.54
 1023      619.696       807.78
 1024      620.094       805.42
 1025      620.492        802.7
 1026       620.89       800.24
 1027      621.288       798.22
 1028      621.686       796.58
 1029      622.083        795.4
 1030       622.48       794.88
 1031      622.878       794.72
 1032      623.275       794.06
 1033      623.672       792.78
 1034      624.069        792.1
 1035      624.466       791.64
 1036      624.863       790.76
 1037      625.259       789.96
 1038      625.656       789.48
 1039      626.052       787.88
 1040      626.448       785.62
 1041      626.844        782.9
 1042      627.241       779.78
 1043      627.636        777.2
 1044      628.032        775.7
 1045      628.428       774.54
 1046      628.823       774.48
 1047      629.219       775.12
 1048      629.614       775.18
 1049      630.009       774.88
 1050      630.404       774.44
 1051      630.799       772.74
 1052      631.194        770.3
 1053      631.589       768.06
 1054      631.984        765.3
 1055      632.378       762.32
 1056      632.772       759.78
 1057      633.167       757.68
 1058      633.561       755.28
 1059      633.955        753.4
 1060      634.349       752.12
 1061      634.743       751.18
 1062      635.136       750.44
 1063       635.53       749.78
 1064      635.923       749.18
 1065      636.316       748.78
 1066       636.71       748.44
 1067      637.103        747.7
 1068      637.496       746.88
 1069      637.888       745.22
 1070      638.281       742.82
 1071      638.674       740.52
 1072      639.066       738.22
 1073      639.459       736.48
 1074      639.851       736.04
 1075      640.243       735.42
 1076      640.635       733.94
 1077      641.027        732.3
 1078      641.419       729.94
 1079       641.81       726.72
 1080      642.202       723.86
 1081      642.593        721.4
 1082      642.984       719.06
 1083      643.375       717.12
 1084      643.766       715.62
 1085      644.157       714.58
 1086      644.548       714.44
 1087      644.939       714.96
 1088      645.329       715.28
 1089       645.72        715.2
 1090       646.11       714.86
 1091        646.5       713.64
 1092       646.89       711.46
 1093       647.28       709.38
 1094       647.67       707.98
 1095       648.06       706.92
 1096      648.449       706.02
 1097      648.839       705.12
 1098      649.228        703.9
 1099      649.617       702.28
 1100      650.007       701.06
 1101      650.396       699.86
 1102      650.784       698.82
 1103      651.173        698.3
 1104      651.562       697.74
 1105       651.95       696.54
 1106      652.339       695.04
 1107      652.727       693.34
 1108      653.115       691.58
 1109      653.503       689.98
 1110      653.891       688.16
 1111      654.279       686.72
 1112      654.666       686.26
 1113      655.054       686.02
 1114      655.441       685.58
 1115      655.828       685.92
 1116      656.216       686.72
 1117      656.603       687.22
 1118      656.989       687.34
 1119      657.376        687.4
 1120      657.763        687.2
 1121      658.149       686.74
 1122      658.536        685.5
 1123      658.922        684.2
 1124      659.308        682.8
 1125      659.694        680.5
 1126       660.08       678.02
 1127      660.466       676.28
 1128      660.852       674.98
 1129      661.237       673.84
 1130      661.623       673.12
 1131      662.008       672.54
 1132      662.393       672.26
 1133      662.778       671.96
 1134      663.163       671.92
 1135      663.548       671.92
 1136      663.933       671.42
 1137      664.317       670.68
 1138      664.702        669.8
 1139      665.086       668.22
 1140       665.47       666.72
 1141      665.854       665.96
 1142      666.238       665.54
 1143      666.622       665.08
 1144      667.006       665.12
 1145      667.389        664.9
 1146      667.773       664.14
 1147      668.156       663.08
 1148      668.539       661.88
 1149      668.923       660.56
 1150      669.305       659.24
 1151      669.688       657.74
 1152      670.071       656.28
 1153      670.454       655.54
 1154      670.836       655.18
 1155      671.218       654.86
 1156      671.601       655.12
 1157      671.983       655.08
 1158      672.365       654.58
 1159      672.747       654.06
 1160      673.128       653.62
 1161       673.51       653.02
 1162      673.891       652.58
 1163      674.273       651.92
 1164      674.654       650.92
 1165      675.035        650.2
 1166      675.416       649.38
 1167      675.797       648.68
 1168      676.177       648.12
 1169      676.558        647.7
 1170      676.938       647.38
 1171      677.319       647.08
 1172      677.699        646.3
 1173      678.079       645.42
 1174      678.459       644.76
 1175      678.839       643.94
 1176      679.219       643.08
 1177      679.598       642.26
 1178      679.978       641.52
 1179      680.357       640.72
 1180      680.736       640.04
 1181      681.115       639.42
 1182      681.494       639.06
 1183      681.873          639
 1184      682.252       638.74
 1185       682.63       638.38
 1186      683.009       637.86
 1187      683.387       637.04
 1188      683.765       636.04
 1189      684.143        635.3
 1190      684.521       634.62
 1191      684.899       633.64
 1192      685.277       632.88
 1193      685.654       632.38
 1194      686.032       631.92
 1195      686.409       631.44
 1196      686.786        631.3
 1197      687.163       631.08
 1198       687.54       630.76
 1199      687.917       630.62
 1200      688.294       630.68
 1201       688.67       630.48
 1202      689.046       630.38
 1203      689.423       630.12
 1204      689.799       629.24
 1205      690.175       627.88
 1206      690.551       627.52
 1207      690.927       628.04
 1208      691.302        628.4
 1209      691.678       628.28
 1210      692.053       627.88
 1211      692.428       627.28
 1212      692.804        626.2
 1213      693.179       624.82
 1214      693.553       624.26
 1215      693.928       624.36
 1216      694.303       624.06
 1217      694.677       623.64
 1218      695.052       623.42
 1219      695.426       622.98
 1220        695.8       622.58
 1221      696.174        622.7
 1222      696.548       622.98
 1223      696.921        623.6
 1224      697.295       624.18
 1225      697.669       624.16
 1226      698.042        623.7
 1227      698.415       622.74
 1228      698.788       621.52
 1229      699.161        620.4
 1230      699.534       620.04
 1231      699.907       620.02
 1232      700.279       620.42
 1233      700.652        621.6
 1234      701.024          623
 1235      701.396       623.78
 1236      701.768       624.06
 1237       702.14        623.6
 1238      702.512       622.18
 1239      702.883       620.84
 1240      703.255       620.14
 1241      703.626       619.56
 1242      703.998       619.74
 1243      704.369       620.32
 1244       704.74       620.32
 1245      705.111       620.04
 1246      705.481       619.42
 1247      705.852       618.44
 1248      706.222       617.66
 1249      706.593       616.92
 1250      706.963       615.84
 1251      707.333       615.56
 1252      707.703       615.48
 1253      708.073       615.08
 1254      708.442       615.08
 1255      708.812        615.5
 1256      709.181       615.76
 1257      709.551        615.7
 1258       709.92       615.36
 1259      710.289       615.16
 1260      710.658        615.2
 1261      711.027       615.06
 1262      711.395        615.1
 1263      711.764        614.8
 1264      712.132       614.32
 1265        712.5       613.92
 1266      712.869        613.5
 1267      713.236        613.5
 1268      713.604       614.24
 1269      713.972        614.8
 1270       714.34       615.04
 1271      714.707       615.34
 1272      715.074       615.54
 1273      715.442       614.98
 1274      715.809       614.16
 1275      716.176       612.94
 1276      716.542       611.34
 1277      716.909       609.54
 1278      717.276        608.9
 1279      717.642       609.52
 1280      718.008          611
 1281      718.374       612.56
 1282       718.74        613.5
 1283      719.106       613.84
 1284      719.472       613.64
 1285      719.838        612.6
 1286      720.203       611.56
 1287      720.568       611.42
 1288      720.934       611.68
 1289      721.299       611.48
 1290      721.664       611.64
 1291      722.029       612.02
 1292      722.393        612.1
 1293      722.758       611.66
 1294      723.122       611.54
 1295      723.486       611.62
 1296      723.851       612.02
 1297      724.215       612.06
 1298      724.578       611.76
 1299      724.942       611.34
 1300      725.306       610.76
 1301      725.669       609.78
 1302      726.033       609.38
 1303      726.396       609.52
 1304      726.759       609.18
 1305      727.122       608.52
 1306      727.485       607.86
 1307      727.847       607.22
 1308       728.21       607.26
 1309      728.572       607.78
 1310      728.935       608.48
 1311      729.297       609.26
 1312      729.659       610.06
 1313      730.021       610.02
 1314      730.382       609.32
 1315      730.744       608.24
 1316      731.105        607.3
 1317      731.467       606.48
 1318      731.828       606.14
 1319      732.189       606.42
 1320       732.55       607.06
 1321      732.911       607.68
 1322      733.271       608.34
 1323      733.632       608.46
 1324      733.992       607.92
 1325      734.352        607.3
 1326      734.713       607.44
 1327      735.072        607.6
 1328      735.432       608.12
 1329      735.792        608.7
 1330      736.152        609.1
 1331      736.511        608.7
 1332       736.87       607.72
 1333      737.229       606.42
 1334      737.589        606.2
 1335      737.947       606.94
 1336      738.306       607.68
 1337      738.665        608.4
 1338      739.023       609.38
 1339      739.382          610
 1340       739.74       610.02
 1341      740.098       609.64
 1342      740.456       609.28
 1343      740.814        608.8
 1344      741.171       607.98
 1345      741.529        607.1
 1346      741.886       606.82
 1347      742.244       606.66
 1348      742.601       606.08
 1349      742.958       605.72
 1350      743.314       605.92
 1351      743.671       605.68
 1352      744.028       604.68
 1353      744.384       604.12
 1354       744.74       604.02
 1355      745.097        603.6
 1356      745.453       603.06
 1357      745.809        603.3
 1358      746.164       603.94
 1359       746.52        604.5
 1360      746.875       604.86
 1361      747.231       605.54
 1362      747.586        606.3
 1363      747.941       606.86
 1364      748.296       606.82
 1365      748.651       606.54
 1366      749.005       606.86
 1367       749.36        607.6
 1368      749.714       607.64
 1369      750.069       607.72
 1370      750.423       608.62
 1371      750.777       609.08
 1372       751.13       609.08
 1373      751.484       609.28
 1374      751.838       609.24
 1375      752.191        608.4
 1376      752.544        607.4
 1377      752.897       606.22
 1378       753.25       605.44
 1379      753.603        605.4
 1380      753.956        605.3
 1381      754.309        604.7
 1382      754.661       604.34
 1383      755.013       604.26
 1384      755.365       603.68
 1385      755.717       603.78
 1386      756.069       604.84
 1387      756.421        605.6
 1388      756.773        605.5
 1389      757.124       605.16
 1390      757.476       604.32
 1391      757.827       603.16
 1392      758.178       602.56
 1393      758.529        602.6
 1394      758.879       603.44
 1395       759.23       604.54
 1396      759.581       605.48
 1397      759.931       605.98
 1398      760.281       605.72
 1399      760.631       604.78
 1400      760.981        603.7
 1401      761.331       602.82
 1402      761.681       602.32
 1403       762.03       602.12
 1404      762.379        602.2
 1405      762.729       602.04
 1406      763.078       601.56
 1407      763.427       601.08
 1408      763.776        601.4
 1409      764.124       601.96
 1410      764.473       602.66
 1411      764.821        603.2
 1412      765.169       603.88
 1413      765.517       604.68
 1414      765.865       605.22
 1415      766.213       605.72
 1416      766.561       606.44
 1417      766.909        606.7
 1418      767.256        606.2
 1419      767.603       605.82
 1420       767.95       605.54
 1421      768.297        605.1
 1422      768.644       604.34
 1423      768.991       603.52
 1424      769.337          603
 1425      769.684       602.82
 1426       770.03       602.58
 1427      770.376       602.68
 1428      770.722        603.5
 1429      771.068       604.08
 1430      771.414       604.02
 1431      771.759       604.18
 1432      772.105       604.16
 1433       772.45       603.52
 1434      772.795       603.22
 1435       773.14       603.74
 1436      773.485       604.58
 1437       773.83       605.48
 1438      774.174       606.42
 1439      774.519       606.66
 1440      774.863        606.2
 1441      775.207        605.4
 1442      775.551       604.32
 1443      775.895       603.24
 1444      776.239       602.64
 1445      776.582       602.54
 1446      776.926       603.12
 1447      777.269       604.12
 1448      777.612       604.78
 1449      777.955       605.44
 1450      778.298       605.44
 1451      778.641       604.26
 1452      778.983       603.38
 1453      779.326       603.48
 1454      779.668        603.2
 1455       780.01       602.64
 1456      780.352       602.78
 1457      780.694       603.02
 1458      781.036          603
 1459      781.377       603.54
 1460      781.719       604.84
 1461       782.06       606.02
 1462      782.401       606.84
 1463      782.742       606.96
 1464      783.083       606.42
 1465      783.424       605.48
 1466      783.764       604.36
 1467      784.105       603.38
 1468      784.445       602.98
 1469      784.785       602.42
 1470      785.125       602.06
 1471      785.465       602.12
 1472      785.805        601.5
 1473      786.144       600.56
 1474      786.484       600.08
 1475      786.823       599.78
 1476      787.162       599.46
 1477      787.501        599.8
 1478       787.84        600.2
 1479      788.178       600.52
 1480      788.517       601.08
 1481      788.855       601.72
 1482      789.194       602.16
 1483      789.532       602.38
 1484       789.87       602.74
 1485      790.208       602.74
 1486      790.545       602.12
 1487      790.883       601.48
 1488       791.22        601.6
 1489      791.557       601.86
 1490      791.894       602.56
 1491      792.231        603.9
 1492      792.568       605.44
 1493      792.905       606.18
 1494      793.241       606.22
 1495      793.578        605.9
 1496      793.914        605.7
 1497       794.25       605.22
 1498      794.586       604.96
 1499      794.922       605.46
 1500      795.257       605.92
 1501      795.593       605.64
 1502      795.928          605
 1503      796.263       604.36
 1504      796.598       603.36
 1505      796.933       602.64
 1506      797.268       602.18
 1507      797.603       602.14
 1508      797.937        602.5
 1509      798.271        602.9
 1510      798.606       602.84
 1511       798.94       602.84
 1512      799.274       602.84
 1513      799.607       602.48
 1514      799.941        601.9
 1515      800.274       601.58
 1516      800.608       601.52
 1517      800.941       601.52
 1518      801.274       601.24
 1519      801.607       600.74
 1520      801.939        600.7
 1521      802.272       600.82
 1522      802.604       600.94
 1523      802.936       601.96
 1524      803.269       603.66
 1525      803.601       604.76
 1526      803.932        605.6
 1527      804.264       605.96
 1528      804.596       605.06
 1529      804.927       604.06
 1530      805.258       603.22
 1531      805.589       602.18
 1532       805.92       601.56
 1533      806.251       601.54
 1534      806.582       600.82
 1535      806.912       600.34
 1536      807.242       600.22
 1537      807.573       600.06
 1538      807.903       600.44
 1539      808.232       601.18
 1540      808.562       601.42
 1541      808.892        601.5
 1542      809.221       601.38
 1543      809.551       600.84
 1544       809.88       600.24
 1545      810.209          600
 1546      810.538        600.2
 1547      810.866       601.02
 1548      811.195       601.74
 1549      811.523       602.44
 1550      811.851       602.86
 1551       812.18       602.62
 1552      812.507        602.2
 1553      812.835       601.66
 1554      813.163       601.54
 1555       813.49        601.7
 1556      813.818        601.7
 1557      814.145       601.38
 1558      814.472       601.34
 1559      814.799       601.08
 1560      815.126       600.64
 1561      815.452       600.08
 1562      815.779       599.26
 1563      816.105       598.76
 1564      816.431       598.72
 1565      816.757       598.78
 1566      817.083       598.74
 1567      817.409       598.92
 1568      817.734       598.92
 1569       818.06       599.08
 1570      818.385        599.6
 1571       818.71       600.58
 1572      819.035       601.64
 1573       819.36       602.36
 1574      819.685       602.66
 1575      820.009       602.14
 1576      820.333        601.6
 1577      820.658       601.46
 1578      820.982       601.66
 1579      821.305       601.94
 1580      821.629       602.64
 1581      821.953       603.68
 1582      822.276       604.78
 1583        822.6       605.42
 1584      822.923       605.76
 1585      823.246       605.88
 1586      823.569        605.7
 1587      823.891        605.1
 1588      824.214       604.78
 1589      824.536       604.24
 1590      824.858       603.84
 1591       825.18       603.28
 1592      825.502       602.32
 1593      825.824       601.64
 1594      826.146       601.14
 1595      826.467       600.86
 1596      826.789       601.06
 1597       827.11       601.38
 1598      827.431       601.72
 1599      827.752       603.02
 1600      828.072       603.76
 1601      828.393       603.42
 1602      828.713       603.18
 1603      829.034       602.42
 1604      829.354        600.9
 1605      829.674       599.82
 1606      829.993       599.36
 1607      830.313       599.24
 1608      830.633       599.22
 1609      830.952        598.8
 1610      831.271       598.44
 1611       831.59       598.72
 1612      831.909       599.62
 1613      832.228        600.8
 1614      832.546       601.92
 1615      832.865       602.92
 1616      833.183       603.98
 1617      833.501       604.38
 1618      833.819       604.38
 1619      834.137       604.84
 1620      834.455        604.7
 1621      834.772       603.76
 1622      835.089       602.84
 1623      835.407       601.66
 1624      835.724       600.24
 1625       836.04       599.46
 1626      836.357       598.76
 1627      836.674       598.56
 1628       836.99       599.66
 1629      837.306       600.58
 1630      837.623       601.48
 1631      837.939       602.66
 1632      838.254        603.4
 1633       838.57       603.42
 1634      838.886       603.86
 1635      839.201        603.8
 1636      839.516       603.22
 1637      839.831        602.8
 1638      840.146       602.52
 1639      840.461       602.08
 1640      840.775       602.14
 1641       841.09       602.92
 1642      841.404       603.64
 1643      841.718       604.26
 1644      842.032        605.2
 1645      842.346       605.86
 1646      842.659       605.88
 1647      842.973       605.62
 1648      843.286       605.18
 1649      843.599       604.26
 1650      843.912        603.3
 1651      844.225       602.58
 1652      844.538        602.3
 1653      844.851       602.44
 1654      845.163       602.74
 1655      845.475       603.44
 1656      845.787       603.96
 1657      846.099       603.42
 1658      846.411       602.38
 1659      846.723       601.84
 1660      847.034       601.42
 1661      847.345        601.1
 1662      847.657       601.32
 1663      847.968       601.38
 1664      848.278       601.06
 1665      848.589       600.36
 1666        848.9        599.7
 1667       849.21       599.32
 1668       849.52       598.98
 1669       849.83       598.54
 1670       850.14        598.3
 1671       850.45       598.56
 1672      850.759       599.38
 1673      851.069       600.84
 1674      851.378       602.48
 1675      851.687       604.22
 1676      851.996       605.46
 1677      852.305       605.92
 1678      852.614       605.66
 1679      852.922        604.9
 1680       853.23       604.04
 1681      853.539        603.9
 1682      853.847       604.04
 1683      854.154       604.24
 1684      854.462       605.52
 1685       854.77       606.84
 1686      855.077       606.94
 1687      855.384        606.5
 1688      855.691       605.96
 1689      855.998       604.04
 1690      856.305       601.92
 1691      856.612       600.72
 1692      856.918       600.16
 1693      857.224       600.24
 1694       857.53        601.2
 1695      857.836       602.02
 1696      858.142       602.66
 1697      858.448       603.18
 1698      858.753       603.28
 1699      859.059          603
 1700      859.364       603.34
 1701      859.669       603.62
 1702      859.974       603.42
 1703      860.278       602.98
 1704      860.583       602.58
 1705      860.887       602.02
 1706      861.192       601.78
 1707      861.496       601.96
 1708        861.8       602.26
 1709      862.103       602.66
 1710      862.407        603.4
 1711       862.71       603.62
 1712      863.014       603.88
 1713      863.317       604.46
 1714       863.62       605.32
 1715      863.922       605.54
 1716      864.225       605.56
 1717      864.527       605.16
 1718       864.83       604.66
 1719      865.132       603.72
 1720      865.434       602.62
 1721      865.736       602.24
 1722      866.037        602.4
 1723      866.339       602.52
 1724       866.64       602.76
 1725      866.941       603.24
 1726      867.242       603.56
 1727      867.543       603.54
 1728      867.844        603.6
 1729      868.145       603.34
 1730      868.445       602.68
 1731      868.745       601.96
 1732      869.045       601.26
 1733      869.345       600.44
 1734      869.645       600.28
 1735      869.944       600.62
 1736      870.244        600.8
 1737      870.543       601.28
 1738      870.842       601.98
 1739      871.141        602.3
 1740       871.44       602.48
 1741      871.739        602.9
 1742      872.037       603.16
 1743      872.335       602.96
 1744      872.634       602.94
 1745      872.931       603.24
 1746      873.229       603.62
 1747      873.527       603.94
 1748      873.824       604.34
 1749      874.122       604.62
 1750      874.419       604.22
 1751      874.716       603.62
 1752      875.013          603
 1753      875.309        602.7
 1754      875.606       602.66
 1755      875.902       602.96
 1756      876.199       603.38
 1757      876.495       603.86
 1758       876.79       604.24
 1759      877.086       604.48
 1760      877.382       605.06
 1761      877.677       605.36
 1762      877.972       605.18
 1763      878.267       604.94
 1764      878.562       604.78
 1765      878.857        604.1
 1766      879.152       602.98
 1767      879.446       601.72
 1768       879.74        600.7
 1769      880.034        599.9
 1770      880.328       599.36
 1771      880.622       599.78
 1772      880.916       601.24
 1773      881.209        602.6
 1774      881.502       603.44
 1775      881.795       603.64
 1776      882.088        603.4
 1777      882.381       603.12
 1778      882.674       602.82
 1779      882.966       602.72
 1780      883.258       603.02
 1781      883.551       603.36
 1782      883.843       603.82
 1783      884.134       604.46
 1784      884.426       604.96
 1785      884.717       605.46
 1786      885.009        605.4
 1787        885.3       604.54
 1788      885.591       603.58
 1789      885.882        602.8
 1790      886.172       602.66
 1791      886.463        603.3
 1792      886.753       604.28
 1793      887.043       605.16
 1794      887.333        606.1
 1795      887.623       606.22
 1796      887.913       605.78
 1797      888.202       604.96
 1798      888.492       603.52
 1799      888.781       601.72
 1800       889.07       600.34
 1801      889.359       599.84
 1802      889.647       600.04
 1803      889.936       601.12
 1804      890.224       602.34
 1805      890.512       603.34
 1806        890.8       603.92
 1807      891.088        604.1
 1808      891.376       604.02
 1809      891.663        603.9
 1810      891.951        604.2
 1811      892.238       604.28
 1812      892.525       604.36
 1813      892.812       604.48
 1814      893.099       604.98
 1815      893.385       604.88
 1816      893.671       604.34
 1817      893.958        603.7
 1818      894.244        603.4
 1819       894.53          603
 1820      894.815       602.86
 1821      895.101       603.22
 1822      895.386       603.66
 1823      895.671       603.62
 1824      895.956       603.32
 1825      896.241       602.98
 1826      896.526       602.62
 1827       896.81        602.5
 1828      897.095       603.06
 1829      897.379       603.44
 1830      897.663       603.74
 1831      897.947        603.9
 1832      898.231       603.52
 1833      898.514       602.84
 1834      898.798       602.56
 1835      899.081       602.24
 1836      899.364       602.04
 1837      899.647       602.06
 1838      899.929        601.8
 1839      900.212       601.54
 1840      900.494       601.86
 1841      900.776       602.38
 1842      901.058       602.48
 1843       901.34        602.2
 1844      901.622       602.22
 1845      901.904       601.96
 1846      902.185       601.14
 1847      902.466       600.68
 1848      902.747       600.54
 1849      903.028       599.82
 1850      903.309       599.18
 1851      903.589       599.38
 1852       903.87       599.68
 1853       904.15       599.76
 1854       904.43        600.3
 1855       904.71       601.44
 1856      904.989       602.56
 1857      905.269        603.9
 1858      905.548       605.34
 1859      905.827       606.68
 1860      906.106       607.42
 1861      906.385       607.66
 1862      906.664       607.72
 1863      906.942       607.76
 1864      907.221       607.18
 1865      907.499       606.64
 1866      907.777       606.66
 1867      908.055       606.72
 1868      908.332       606.92
 1869       908.61       607.68
 1870      908.887       608.16
 1871      909.164       607.78
 1872      909.441       607.02
 1873      909.718       606.04
 1874      909.995       604.96
 1875      910.271       603.76
 1876      910.548       602.82
 1877      910.824        602.4
 1878        911.1       602.48
 1879      911.375       601.82
 1880      911.651        601.1
 1881      911.927       600.94
 1882      912.202       600.36
 1883      912.477       599.18
 1884      912.752       598.96
 1885      913.027       599.22
 1886      913.301       599.32
 1887      913.576       600.02
 1888       913.85       601.28
 1889      914.124       602.16
 1890      914.398       602.94
 1891      914.672       603.74
 1892      914.945       604.58
 1893      915.219       605.38
 1894      915.492       606.32
 1895      915.765       607.16
 1896      916.038       607.42
 1897      916.311       606.98
 1898      916.583       606.38
 1899      916.856       605.86
 1900      917.128       605.18
 1901        917.4       604.38
 1902      917.672       604.02
 1903      917.944       603.86
 1904      918.215        604.1
 1905      918.486       604.64
 1906      918.758       605.36
 1907      919.029       605.74
 1908      919.299       605.58
 1909       919.57       604.38
 1910      919.841       602.92
 1911      920.111       601.78
 1912      920.381          601
 1913      920.651       600.42
 1914      920.921       600.14
 1915      921.191       600.26
 1916       921.46       600.28
 1917      921.729       600.52
 1918      921.999       601.18
 1919      922.268       601.92
 1920      922.536       602.48
 1921      922.805       602.94
 1922      923.073       603.06
 1923      923.342       602.98
 1924       923.61       603.24
 1925      923.878          603
 1926      924.145       602.62
 1927      924.413       602.02
 1928       924.68       601.14
 1929      924.948       600.12
 1930      925.215       599.76
 1931      925.482       599.46
 1932      925.748       599.68
 1933      926.015       600.86
 1934      926.281        602.1
 1935      926.547       602.52
 1936      926.813       603.12
 1937      927.079       603.82
 1938      927.345       603.74
 1939       927.61       603.18
 1940      927.876       602.82
 1941      928.141       602.42
 1942      928.406       601.74
 1943      928.671        601.5
 1944      928.935       601.42
 1945        929.2        601.5
 1946      929.464       601.82
 1947      929.728       602.02
 1948      929.992       601.28
 1949      930.256        600.4
 1950       930.52        599.8
 1951      930.783       599.08
 1952      931.046       598.46
 1953      931.309        598.3
 1954      931.572       598.74
 1955      931.835       599.16
 1956      932.097       598.58
 1957       932.36       598.12
 1958      932.622       598.88
 1959      932.884        599.6
 1960      933.146       600.34
 1961      933.408       601.92
 1962      933.669       603.28
 1963       933.93        603.3
 1964      934.192       602.96
 1965      934.453       602.64
 1966      934.713        602.3
 1967      934.974       601.96
 1968      935.234        602.2
 1969      935.495       602.28
 1970      935.755       602.06
 1971      936.015       602.28
 1972      936.274       602.66
 1973      936.534       602.14
 1974      936.793       602.08
 1975      937.053       602.76
 1976      937.312       603.34
 1977      937.571        603.3
 1978      937.829       603.26
 1979      938.088        602.9
 1980      938.346        601.6
 1981      938.604       600.16
 1982      938.862       599.78
 1983       939.12        600.4
 1984      939.378       600.92
 1985      939.635       601.22
 1986      939.893       601.06
 1987       940.15       600.16
 1988      940.407        599.1
 1989      940.663       598.36
 1990       940.92       598.22
 1991      941.176       598.78
 1992      941.433       599.92
 1993      941.689       600.38
 1994      941.944       600.88
 1995        942.2        601.7
 1996      942.456       602.06
 1997      942.711       601.82
 1998      942.966       602.58
 1999      943.221        603.5
 2000      943.476       603.34
 2001      943.731       602.82
 2002      943.985       602.84
 2003      944.239       602.32
 2004      944.493       601.14
 2005      944.747       600.98
 2006      945.001       601.46
 2007      945.255       601.86
 2008      945.508       602.02
 2009      945.761       602.34
 2010      946.014       602.76
 2011      946.267       602.92
 2012       946.52       602.66
 2013      946.772       602.26
 2014      947.025       601.94
 2015      947.277       601.54
 2016      947.529       601.26
 2017      947.781       601.82
 2018      948.032       602.98
 2019      948.284       603.74
 2020      948.535       604.04
 2021      948.786       603.66
 2022      949.037       602.68
 2023      949.288       601.84
 2024      949.538       601.28
 2025      949.789       600.56
 2026      950.039       600.46
 2027      950.289       600.48
 2028      950.539          600
 2029      950.788       600.02
 2030      951.038       600.56
 2031      951.287       600.72
 2032      951.536       600.78
 2033      951.785       601.24
 2034      952.034       601.46
 2035      952.282       601.62
 2036      952.531       601.72
 2037      952.779        600.6
 2038      953.027       599.48
 2039      953.275       599.42
 2040      953.523        599.4
 2041       953.77          600
 2042      954.017       601.72
 2043      954.264       602.86
 2044      954.511       602.76
 2045      954.758       602.38
 2046      955.005        602.1
 2047      955.251      601.567
