scansci Spectrometer Data File
--- Measurement Setting ---
Type: Sample Spectrum
Date: Mon Oct 16 16:50:16 2023
User: (Reserved by scansci)
Serial: (Reserved by scansci)
Channel: No. 11
Integration Time: 1
Average: 10
Boxcar: 2
Electrical Dark: No-corrected
Time Normalize: (Reserved by scansci)
Dual-beam: (Reserved by scansci)
Reference Ch: (Reserved by scansci)
--- Measurement Data ---
Pixel   Wavelength   Intensity
    0        344.4      671.133
    1      344.867        671.4
    2      345.334       671.58
    3      345.801        671.8
    4      346.268       672.08
    5      346.735       672.04
    6      347.202       671.64
    7      347.669       670.98
    8      348.135       670.04
    9      348.602       669.32
   10      349.068       668.88
   11      349.535       668.72
   12      350.001        668.9
   13      350.467       669.38
   14      350.933       669.84
   15      351.399        670.3
   16      351.866       670.36
   17      352.331        670.2
   18      352.797        669.7
   19      353.263       669.02
   20      353.729       668.42
   21      354.194       668.32
   22       354.66       668.88
   23      355.126       669.82
   24      355.591       670.62
   25      356.056        671.3
   26      356.522        671.9
   27      356.987       672.08
   28      357.452       671.68
   29      357.917       671.28
   30      358.382       671.14
   31      358.847       670.84
   32      359.312       670.34
   33      359.776        670.8
   34      360.241       671.86
   35      360.706       672.52
   36       361.17          673
   37      361.634       673.48
   38      362.099        672.9
   39      362.563       671.62
   40      363.027        671.1
   41      363.491       670.88
   42      363.955        670.8
   43      364.419       671.28
   44      364.883       671.68
   45      365.347       671.28
   46      365.811       670.26
   47      366.274       668.98
   48      366.738       668.28
   49      367.201       668.44
   50      367.665       669.28
   51      368.128       671.12
   52      368.592       672.54
   53      369.055       672.62
   54      369.518       672.12
   55      369.981        671.2
   56      370.444          670
   57      370.907        669.5
   58       371.37        669.6
   59      371.832       669.18
   60      372.295       668.52
   61      372.757       668.16
   62       373.22       667.84
   63      373.682       667.86
   64      374.145       668.86
   65      374.607          670
   66      375.069       670.34
   67      375.531       670.52
   68      375.993       670.56
   69      376.455       670.02
   70      376.917       669.04
   71      377.379       668.38
   72      377.841        668.2
   73      378.302       668.22
   74      378.764       668.46
   75      379.225       668.92
   76      379.687       669.12
   77      380.148          669
   78      380.609        668.3
   79      381.071       667.56
   80      381.532        667.5
   81      381.993       667.42
   82      382.454       666.86
   83      382.915       666.48
   84      383.375        666.4
   85      383.836       666.28
   86      384.297       666.16
   87      384.757       666.34
   88      385.218       667.26
   89      385.678       668.08
   90      386.138       668.38
   91      386.599       668.64
   92      387.059       668.58
   93      387.519       667.82
   94      387.979          667
   95      388.439       666.42
   96      388.899       666.14
   97      389.358       666.32
   98      389.818       667.22
   99      390.278       668.08
  100      390.737       668.64
  101      391.197        669.2
  102      391.656       669.92
  103      392.115       669.62
  104      392.575       668.88
  105      393.034       668.56
  106      393.493       668.16
  107      393.952       667.94
  108      394.411       668.24
  109       394.87        668.6
  110      395.328       668.68
  111      395.787       668.76
  112      396.246       668.72
  113      396.704       668.58
  114      397.163       668.58
  115      397.621       668.96
  116      398.079       669.26
  117      398.537       668.84
  118      398.995       668.08
  119      399.454       667.16
  120      399.911       666.44
  121      400.369       666.34
  122      400.827       667.14
  123      401.285       668.26
  124      401.743       669.02
  125        402.2        669.3
  126      402.658       669.22
  127      403.115       668.62
  128      403.572        667.9
  129       404.03        667.7
  130      404.487       667.28
  131      404.944       666.36
  132      405.401       665.64
  133      405.858       665.36
  134      406.315       665.22
  135      406.771       665.24
  136      407.228       666.06
  137      407.685        666.8
  138      408.141       667.14
  139      408.598       667.74
  140      409.054       668.64
  141       409.51       669.18
  142      409.967       669.46
  143      410.423       669.44
  144      410.879       668.88
  145      411.335       668.12
  146      411.791       667.86
  147      412.246       668.32
  148      412.702       669.08
  149      413.158        669.5
  150      413.613       669.72
  151      414.069       669.64
  152      414.524       669.44
  153       414.98       669.52
  154      415.435       670.32
  155       415.89       671.28
  156      416.345       671.68
  157        416.8       671.58
  158      417.255       671.08
  159       417.71       670.42
  160      418.165       669.96
  161      418.619       669.74
  162      419.074       669.38
  163      419.529       668.92
  164      419.983       668.46
  165      420.437        668.1
  166      420.892       667.66
  167      421.346       667.28
  168        421.8        667.5
  169      422.254       667.92
  170      422.708       667.82
  171      423.162       667.54
  172      423.616       667.42
  173       424.07       667.66
  174      424.523       668.14
  175      424.977       668.88
  176       425.43       669.32
  177      425.884        669.3
  178      426.337       668.78
  179       426.79       667.84
  180      427.243       666.98
  181      427.697       666.88
  182       428.15        667.1
  183      428.602       667.08
  184      429.055       667.24
  185      429.508        667.6
  186      429.961        667.8
  187      430.413       668.14
  188      430.866       669.02
  189      431.318       670.14
  190      431.771       670.72
  191      432.223        670.8
  192      432.675       671.02
  193      433.127       671.08
  194      433.579       670.76
  195      434.031       670.26
  196      434.483       670.42
  197      434.935       670.46
  198      435.387       669.88
  199      435.838       669.22
  200       436.29        669.1
  201      436.741       668.46
  202      437.193       667.64
  203      437.644       667.72
  204      438.095       667.82
  205      438.546       667.82
  206      438.997       668.44
  207      439.448       669.36
  208      439.899       669.82
  209       440.35        669.6
  210      440.801       668.58
  211      441.251       667.28
  212      441.702       665.88
  213      442.152       664.74
  214      442.603       664.76
  215      443.053       666.04
  216      443.503       667.28
  217      443.954       668.28
  218      444.404       668.98
  219      444.854        669.2
  220      445.304       668.54
  221      445.753        667.4
  222      446.203       666.44
  223      446.653       665.84
  224      447.102       665.62
  225      447.552       665.98
  226      448.001       666.82
  227      448.451       667.66
  228        448.9       668.32
  229      449.349       668.82
  230      449.798        669.2
  231      450.247       669.72
  232      450.696       670.44
  233      451.145       671.06
  234      451.594       671.18
  235      452.042       670.86
  236      452.491       670.52
  237      452.939        670.1
  238      453.388       669.48
  239      453.836        669.2
  240      454.285       669.08
  241      454.733       668.94
  242      455.181       668.96
  243      455.629       669.04
  244      456.077       669.02
  245      456.525       669.16
  246      456.972       669.44
  247       457.42       669.62
  248      457.868       669.86
  249      458.315       669.88
  250      458.763        669.8
  251       459.21       668.92
  252      459.657       667.74
  253      460.104        667.1
  254      460.552       666.94
  255      460.999       667.06
  256      461.446       668.16
  257      461.892       669.32
  258      462.339       669.46
  259      462.786        669.1
  260      463.233       668.64
  261      463.679       667.76
  262      464.125       666.84
  263      464.572       666.32
  264      465.018       666.28
  265      465.464       666.28
  266       465.91       666.14
  267      466.356       666.26
  268      466.802       666.82
  269      467.248       667.42
  270      467.694        667.7
  271       468.14       667.96
  272      468.585       667.96
  273      469.031       667.76
  274      469.476       667.66
  275      469.922       667.98
  276      470.367       668.28
  277      470.812       668.52
  278      471.257       668.74
  279      471.702          669
  280      472.147       669.04
  281      472.592       669.26
  282      473.037       669.62
  283      473.482       670.24
  284      473.926       670.64
  285      474.371       670.96
  286      474.815       671.24
  287      475.259       671.18
  288      475.704       670.04
  289      476.148       668.38
  290      476.592        666.9
  291      477.036       665.62
  292       477.48       664.66
  293      477.924       664.52
  294      478.368       664.92
  295      478.811       665.32
  296      479.255       665.36
  297      479.698       665.26
  298      480.142        665.1
  299      480.585       664.84
  300      481.028       664.92
  301      481.472       665.44
  302      481.915       665.96
  303      482.358        666.8
  304      482.801        667.9
  305      483.244       668.62
  306      483.686       669.22
  307      484.129          670
  308      484.572        670.5
  309      485.014       670.72
  310      485.456       670.34
  311      485.899       669.28
  312      486.341       668.48
  313      486.783       667.86
  314      487.225       667.44
  315      487.667       667.56
  316      488.109        668.1
  317      488.551       668.48
  318      488.993       668.66
  319      489.434       668.74
  320      489.876       668.44
  321      490.318       667.94
  322      490.759       667.72
  323        491.2       667.56
  324      491.641       667.36
  325      492.083       667.66
  326      492.524       668.62
  327      492.965        669.4
  328      493.406        669.5
  329      493.846        669.2
  330      494.287        668.6
  331      494.728       667.72
  332      495.168       666.98
  333      495.609       666.66
  334      496.049        666.9
  335      496.489       667.38
  336       496.93       668.26
  337       497.37       669.22
  338       497.81       670.04
  339       498.25       670.76
  340       498.69        671.3
  341      499.129       671.06
  342      499.569        670.5
  343      500.009       669.74
  344      500.448       668.74
  345      500.888        668.2
  346      501.327       668.18
  347      501.766        668.5
  348      502.206       669.62
  349      502.645       670.54
  350      503.084       671.08
  351      503.523       671.48
  352      503.961       671.56
  353        504.4        671.6
  354      504.839       672.08
  355      505.277       672.06
  356      505.716       671.86
  357      506.154        671.7
  358      506.593       671.18
  359      507.031       670.16
  360      507.469       669.52
  361      507.907       669.12
  362      508.345        668.6
  363      508.783        668.4
  364      509.221       668.98
  365      509.659       670.14
  366      510.096       671.48
  367      510.534       672.66
  368      510.971       672.86
  369      511.409        672.1
  370      511.846       671.06
  371      512.283       669.82
  372       512.72       668.86
  373      513.157        668.7
  374      513.594       668.98
  375      514.031       669.32
  376      514.468       669.86
  377      514.905        670.1
  378      515.341       670.16
  379      515.778       670.42
  380      516.214        670.2
  381       516.65       669.72
  382      517.087       669.36
  383      517.523        669.4
  384      517.959       669.26
  385      518.395       669.18
  386      518.831       669.44
  387      519.267       669.86
  388      519.702       669.94
  389      520.138       670.18
  390      520.574       670.56
  391      521.009       670.94
  392      521.444        671.2
  393       521.88       671.42
  394      522.315       671.26
  395       522.75       671.22
  396      523.185       670.52
  397       523.62       669.44
  398      524.055       668.56
  399       524.49       667.86
  400      524.924       667.14
  401      525.359       667.14
  402      525.794       667.64
  403      526.228          668
  404      526.662       668.62
  405      527.097       669.22
  406      527.531       669.68
  407      527.965       670.16
  408      528.399       670.66
  409      528.833       671.04
  410      529.267        671.4
  411        529.7        671.6
  412      530.134        671.5
  413      530.568       671.54
  414      531.001       671.78
  415      531.434       671.74
  416      531.868       671.26
  417      532.301       670.96
  418      532.734        670.7
  419      533.167       670.38
  420        533.6       670.38
  421      534.033       670.52
  422      534.466       670.22
  423      534.898       670.04
  424      535.331       670.24
  425      535.763       670.32
  426      536.196       670.46
  427      536.628       670.92
  428       537.06       670.96
  429      537.493        670.6
  430      537.925       670.42
  431      538.357        669.9
  432      538.788       669.38
  433       539.22        669.2
  434      539.652       669.12
  435      540.084        669.3
  436      540.515       670.38
  437      540.947       671.94
  438      541.378       672.92
  439      541.809       673.32
  440       542.24       673.06
  441      542.672       672.48
  442      543.103       671.32
  443      543.533       670.32
  444      543.964       670.08
  445      544.395       670.48
  446      544.826        670.8
  447      545.256       671.38
  448      545.687          672
  449      546.117       671.92
  450      546.547        671.6
  451      546.978       671.64
  452      547.408       671.66
  453      547.838       671.44
  454      548.268       671.58
  455      548.698       671.88
  456      549.127       671.88
  457      549.557       671.96
  458      549.987       672.52
  459      550.416       672.72
  460      550.846       672.76
  461      551.275       672.92
  462      551.704       672.72
  463      552.133       672.32
  464      552.562       672.06
  465      552.991       671.64
  466       553.42       671.32
  467      553.849       671.42
  468      554.278       671.44
  469      554.706       671.48
  470      555.135       671.58
  471      555.563        671.5
  472      555.991       671.42
  473       556.42       671.66
  474      556.848       672.18
  475      557.276       672.62
  476      557.704       672.62
  477      558.132       672.18
  478       558.56       671.44
  479      558.987       670.34
  480      559.415       669.92
  481      559.843        669.9
  482       560.27       670.04
  483      560.697        670.4
  484      561.125        670.8
  485      561.552       670.56
  486      561.979       670.18
  487      562.406       670.02
  488      562.833       669.98
  489       563.26       670.04
  490      563.686       670.28
  491      564.113          671
  492       564.54       671.62
  493      564.966       671.66
  494      565.392       671.46
  495      565.819       671.36
  496      566.245       670.96
  497      566.671       670.58
  498      567.097       670.94
  499      567.523       671.64
  500      567.949       671.74
  501      568.374       671.74
  502        568.8        671.6
  503      569.226       671.16
  504      569.651        670.8
  505      570.077       670.48
  506      570.502        670.3
  507      570.927        670.3
  508      571.352       670.26
  509      571.777       670.12
  510      572.202       670.66
  511      572.627        671.4
  512      573.052       672.18
  513      573.476       672.76
  514      573.901       673.12
  515      574.325       673.12
  516       574.75          673
  517      575.174       673.14
  518      575.598       673.24
  519      576.022       672.92
  520      576.446       672.44
  521       576.87        671.6
  522      577.294       670.14
  523      577.718       668.74
  524      578.142        668.3
  525      578.565       668.28
  526      578.989       668.52
  527      579.412        669.1
  528      579.835          670
  529      580.259       670.66
  530      580.682       671.02
  531      581.105       671.56
  532      581.528       671.98
  533      581.951       672.14
  534      582.373       672.56
  535      582.796       672.88
  536      583.219       672.54
  537      583.641       672.78
  538      584.063       673.66
  539      584.486        674.2
  540      584.908       674.84
  541       585.33       675.28
  542      585.752       674.94
  543      586.174       674.26
  544      586.596       673.76
  545      587.018        673.5
  546      587.439          674
  547      587.861       674.66
  548      588.282       674.86
  549      588.704        674.6
  550      589.125       674.38
  551      589.546       674.24
  552      589.967       674.06
  553      590.388        673.9
  554      590.809       674.36
  555       591.23       674.88
  556      591.651       675.18
  557      592.071       675.82
  558      592.492       676.38
  559      592.912       676.08
  560      593.333       675.38
  561      593.753       674.56
  562      594.173       673.72
  563      594.593       673.48
  564      595.013       673.58
  565      595.433       673.54
  566      595.853       673.34
  567      596.273       673.14
  568      596.693       672.94
  569      597.112       673.58
  570      597.532       674.96
  571      597.951       676.48
  572       598.37        677.3
  573      598.789       677.52
  574      599.208       676.98
  575      599.627       676.24
  576      600.046       675.66
  577      600.465       675.68
  578      600.884       676.16
  579      601.303       676.92
  580      601.721       677.54
  581      602.139       678.02
  582      602.558       678.42
  583      602.976       678.72
  584      603.394        678.5
  585      603.812       677.94
  586       604.23       677.56
  587      604.648       677.08
  588      605.066        676.2
  589      605.484        675.6
  590      605.901       675.28
  591      606.319       674.98
  592      606.736       675.22
  593      607.154        675.5
  594      607.571       675.22
  595      607.988        675.1
  596      608.405       674.76
  597      608.822       673.74
  598      609.239       673.36
  599      609.656       673.88
  600      610.072       674.52
  601      610.489       675.34
  602      610.905       675.94
  603      611.322       676.16
  604      611.738       676.46
  605      612.154       676.54
  606       612.57       676.24
  607      612.986       676.38
  608      613.402        676.7
  609      613.818       676.36
  610      614.234       675.62
  611       614.65       675.22
  612      615.065       675.14
  613      615.481       674.72
  614      615.896        674.1
  615      616.311       673.84
  616      616.727       673.76
  617      617.142       673.62
  618      617.557       673.72
  619      617.972       674.12
  620      618.386        674.8
  621      618.801       675.36
  622      619.216       675.26
  623       619.63       674.74
  624      620.045       674.42
  625      620.459        674.3
  626      620.873       674.38
  627      621.287        674.4
  628      621.702       674.38
  629      622.116       674.58
  630      622.529       674.66
  631      622.943        674.6
  632      623.357       674.64
  633      623.771       675.12
  634      624.184       675.52
  635      624.597       675.56
  636      625.011       675.62
  637      625.424       675.84
  638      625.837       675.88
  639       626.25       676.06
  640      626.663       676.42
  641      627.076        676.6
  642      627.489       676.72
  643      627.901        676.8
  644      628.314        676.4
  645      628.726        675.6
  646      629.139       674.82
  647      629.551        674.5
  648      629.963        674.3
  649      630.375       674.08
  650      630.787       674.12
  651      631.199        673.8
  652      631.611       673.48
  653      632.023       673.52
  654      632.434       673.74
  655      632.846       673.62
  656      633.257       673.56
  657      633.669       673.52
  658       634.08       673.82
  659      634.491       673.84
  660      634.902       673.76
  661      635.313       673.74
  662      635.724       673.38
  663      636.135       672.82
  664      636.545       672.88
  665      636.956       673.36
  666      637.366          674
  667      637.777       674.38
  668      638.187        674.4
  669      638.597       674.44
  670      639.007       673.66
  671      639.417       672.74
  672      639.827        672.7
  673      640.237       672.62
  674      640.647       671.98
  675      641.056       672.06
  676      641.466       672.36
  677      641.875       672.12
  678      642.285       671.92
  679      642.694       672.04
  680      643.103       672.22
  681      643.512       672.18
  682      643.921       672.18
  683       644.33       672.18
  684      644.739       671.78
  685      645.148       671.58
  686      645.556       671.46
  687      645.965       670.98
  688      646.373        670.6
  689      646.781       670.68
  690      647.189       670.28
  691      647.598       670.34
  692      648.006       671.18
  693      648.414       672.06
  694      648.821       672.66
  695      649.229       673.16
  696      649.637       673.16
  697      650.044       672.88
  698      650.452       672.54
  699      650.859       672.06
  700      651.266       671.78
  701      651.673          672
  702       652.08       672.28
  703      652.487       672.38
  704      652.894       672.96
  705      653.301       673.64
  706      653.708       673.84
  707      654.114        673.5
  708      654.521       673.02
  709      654.927       672.28
  710      655.333       671.66
  711       655.74       671.42
  712      656.146       672.16
  713      656.552       672.96
  714      656.958       673.16
  715      657.363        673.2
  716      657.769       673.32
  717      658.175        673.1
  718       658.58       672.96
  719      658.986       673.62
  720      659.391       674.68
  721      659.796       675.22
  722      660.201       675.18
  723      660.606        674.8
  724      661.011        674.2
  725      661.416       673.18
  726      661.821        672.3
  727      662.225       671.84
  728       662.63        671.9
  729      663.034        671.9
  730      663.439       671.82
  731      663.843        671.9
  732      664.247       672.14
  733      664.651        672.2
  734      665.055       672.64
  735      665.459       673.02
  736      665.863        672.6
  737      666.267        671.9
  738       666.67       671.58
  739      667.074       671.32
  740      667.477       671.48
  741       667.88       672.02
  742      668.283       672.12
  743      668.687       671.58
  744       669.09       670.92
  745      669.492       670.14
  746      669.895       669.68
  747      670.298       669.54
  748      670.701        669.9
  749      671.103       670.42
  750      671.505       670.54
  751      671.908       669.78
  752       672.31       668.76
  753      672.712       667.76
  754      673.114       666.52
  755      673.516       665.86
  756      673.918       666.72
  757       674.32       667.96
  758      674.721       668.48
  759      675.123       669.18
  760      675.524       669.72
  761      675.926       669.44
  762      676.327        669.1
  763      676.728        669.6
  764      677.129       669.98
  765       677.53       669.86
  766      677.931       669.84
  767      678.332       670.14
  768      678.732        670.2
  769      679.133        670.2
  770      679.533       670.86
  771      679.934       671.24
  772      680.334       671.18
  773      680.734       671.08
  774      681.134       670.72
  775      681.534       669.92
  776      681.934        669.5
  777      682.334       669.48
  778      682.733       669.22
  779      683.133        668.9
  780      683.532       668.82
  781      683.932        668.8
  782      684.331       668.44
  783       684.73       668.62
  784      685.129       669.08
  785      685.528       669.66
  786      685.927       670.08
  787      686.326       670.16
  788      686.725       670.08
  789      687.123       670.36
  790      687.522       670.64
  791       687.92       671.06
  792      688.319       672.42
  793      688.717       673.56
  794      689.115       673.62
  795      689.513       673.48
  796      689.911       673.36
  797      690.309       673.38
  798      690.706       673.96
  799      691.104        674.7
  800      691.501       675.08
  801      691.899       675.54
  802      692.296        674.9
  803      692.693        673.4
  804       693.09       672.26
  805      693.488       671.54
  806      693.884       670.64
  807      694.281        670.2
  808      694.678       670.36
  809      695.075       670.54
  810      695.471       670.86
  811      695.868       671.08
  812      696.264        671.4
  813       696.66       671.52
  814      697.056       671.26
  815      697.452       670.76
  816      697.848       670.32
  817      698.244       669.78
  818       698.64       669.38
  819      699.035       669.54
  820      699.431       670.02
  821      699.826       670.44
  822      700.222        670.5
  823      700.617       670.12
  824      701.012       669.68
  825      701.407       669.02
  826      701.802       668.72
  827      702.197        669.3
  828      702.592       670.14
  829      702.986       670.78
  830      703.381        671.5
  831      703.775       671.92
  832       704.17       671.64
  833      704.564          671
  834      704.958       670.32
  835      705.352        669.8
  836      705.746        669.4
  837       706.14       668.96
  838      706.533        668.8
  839      706.927       669.26
  840      707.321       669.78
  841      707.714       670.32
  842      708.107       670.92
  843      708.501       671.12
  844      708.894        670.9
  845      709.287       670.96
  846       709.68       671.28
  847      710.073       671.28
  848      710.465       671.34
  849      710.858        671.6
  850      711.251       671.12
  851      711.643       670.22
  852      712.035       669.68
  853      712.428       669.46
  854       712.82       669.62
  855      713.212       670.34
  856      713.604       670.86
  857      713.995       671.48
  858      714.387        672.1
  859      714.779       671.86
  860       715.17       671.02
  861      715.562       670.76
  862      715.953       670.34
  863      716.344       669.74
  864      716.735       669.48
  865      717.127       669.64
  866      717.517       669.66
  867      717.908       669.54
  868      718.299       669.54
  869       718.69       669.74
  870       719.08       669.86
  871      719.471       669.94
  872      719.861        670.1
  873      720.251       670.06
  874      720.641       669.88
  875      721.031       669.68
  876      721.421        669.4
  877      721.811       669.86
  878      722.201       670.94
  879       722.59        671.5
  880       722.98       671.58
  881      723.369       671.38
  882      723.759        670.3
  883      724.148       668.72
  884      724.537        667.8
  885      724.926       667.44
  886      725.315       666.98
  887      725.704        666.8
  888      726.092       667.28
  889      726.481       667.64
  890       726.87        667.8
  891      727.258       668.16
  892      727.646       668.62
  893      728.034       668.64
  894      728.423       668.54
  895      728.811       668.32
  896      729.198       668.06
  897      729.586       667.94
  898      729.974       667.98
  899      730.362       668.16
  900      730.749       668.78
  901      731.136       669.14
  902      731.524       669.06
  903      731.911       668.96
  904      732.298       669.22
  905      732.685       669.28
  906      733.072        669.9
  907      733.459       670.66
  908      733.845        671.3
  909      734.232       671.58
  910      734.618       672.04
  911      735.005       672.04
  912      735.391       671.72
  913      735.777       671.28
  914      736.163       670.84
  915      736.549       670.14
  916      736.935       669.82
  917      737.321        669.7
  918      737.706       669.16
  919      738.092       668.76
  920      738.477       668.48
  921      738.863       668.16
  922      739.248       668.62
  923      739.633       669.92
  924      740.018       670.92
  925      740.403       671.42
  926      740.788       671.58
  927      741.173       671.24
  928      741.557       670.52
  929      741.942       669.72
  930      742.326       668.84
  931      742.711       667.98
  932      743.095       667.36
  933      743.479       666.52
  934      743.863       665.84
  935      744.247       666.08
  936      744.631        666.5
  937      745.015       666.88
  938      745.398        667.8
  939      745.782       668.16
  940      746.165       668.04
  941      746.548        668.5
  942      746.932       669.04
  943      747.315       669.26
  944      747.698       669.76
  945      748.081       670.16
  946      748.463       669.78
  947      748.846        668.5
  948      749.229       667.22
  949      749.611       666.14
  950      749.993       665.16
  951      750.376       664.98
  952      750.758       665.72
  953       751.14       666.24
  954      751.522        666.9
  955      751.904       667.96
  956      752.285       669.46
  957      752.667        670.9
  958      753.049       672.28
  959       753.43       673.58
  960      753.811        674.1
  961      754.193       673.18
  962      754.574       672.02
  963      754.955       671.54
  964      755.336       671.22
  965      755.717        671.2
  966      756.097       671.48
  967      756.478       671.48
  968      756.858       670.86
  969      757.239       669.94
  970      757.619       669.58
  971      757.999       669.14
  972      758.379       668.72
  973      758.759       668.82
  974      759.139       668.82
  975      759.519        668.2
  976      759.899       667.84
  977      760.278       668.16
  978      760.658       668.34
  979      761.037       668.54
  980      761.417       668.78
  981      761.796       668.44
  982      762.175       667.28
  983      762.554       666.28
  984      762.933       665.78
  985      763.311       665.58
  986       763.69       665.94
  987      764.068       667.18
  988      764.447        668.6
  989      764.825       669.76
  990      765.203       670.66
  991      765.582       671.46
  992       765.96       671.56
  993      766.338       671.04
  994      766.715       670.54
  995      767.093       670.64
  996      767.471       670.48
  997      767.848       670.26
  998      768.226       670.62
  999      768.603       671.04
 1000       768.98        670.4
 1001      769.357          670
 1002      769.734       670.28
 1003      770.111       670.42
 1004      770.488       670.22
 1005      770.864       670.12
 1006      771.241       670.22
 1007      771.617       670.12
 1008      771.994       669.58
 1009       772.37        668.6
 1010      772.746        668.3
 1011      773.122       668.54
 1012      773.498        668.8
 1013      773.874        669.7
 1014       774.25       671.08
 1015      774.625       671.86
 1016      775.001       672.22
 1017      775.376       672.16
 1018      775.751       671.14
 1019      776.127       670.24
 1020      776.502       669.56
 1021      776.877       668.52
 1022      777.252       667.68
 1023      777.626       667.42
 1024      778.001       667.16
 1025      778.375       666.92
 1026       778.75       667.34
 1027      779.124          668
 1028      779.499        668.6
 1029      779.873       669.38
 1030      780.247       670.16
 1031      780.621       670.38
 1032      780.994       670.44
 1033      781.368       670.72
 1034      781.742        670.6
 1035      782.115       669.92
 1036      782.489       669.08
 1037      782.862       668.22
 1038      783.235       667.04
 1039      783.608       666.36
 1040      783.981       666.54
 1041      784.354          667
 1042      784.727        667.3
 1043        785.1       667.36
 1044      785.472        667.1
 1045      785.845       666.74
 1046      786.217       666.48
 1047      786.589       666.56
 1048      786.961       666.96
 1049      787.333       667.02
 1050      787.705       666.96
 1051      788.077       666.98
 1052      788.449       666.78
 1053       788.82       666.58
 1054      789.192       666.98
 1055      789.563       667.48
 1056      789.934       667.58
 1057      790.306       667.48
 1058      790.677       667.26
 1059      791.048       667.02
 1060      791.419        667.2
 1061      791.789       667.68
 1062       792.16       668.18
 1063       792.53       669.18
 1064      792.901       669.88
 1065      793.271       669.76
 1066      793.641        669.8
 1067      794.012       670.22
 1068      794.382        670.2
 1069      794.751       670.24
 1070      795.121       670.36
 1071      795.491       670.02
 1072      795.861       669.36
 1073       796.23       668.74
 1074      796.599        668.6
 1075      796.969       668.86
 1076      797.338       669.48
 1077      797.707       670.38
 1078      798.076       670.82
 1079      798.445       670.68
 1080      798.813       670.38
 1081      799.182       669.52
 1082       799.55       668.42
 1083      799.919       668.14
 1084      800.287       668.48
 1085      800.655       668.64
 1086      801.023       669.08
 1087      801.391       669.52
 1088      801.759       669.28
 1089      802.127        668.5
 1090      802.495       667.94
 1091      802.862       667.44
 1092       803.23       667.08
 1093      803.597        667.1
 1094      803.964       667.46
 1095      804.331       667.84
 1096      804.698       668.18
 1097      805.065       668.22
 1098      805.432       668.64
 1099      805.799       668.72
 1100      806.165        668.5
 1101      806.532        668.5
 1102      806.898       668.86
 1103      807.264       668.66
 1104      807.631        668.3
 1105      807.997        668.3
 1106      808.363       667.98
 1107      808.728       667.06
 1108      809.094        666.5
 1109       809.46       666.66
 1110      809.825       666.94
 1111      810.191       667.34
 1112      810.556        667.8
 1113      810.921       668.14
 1114      811.286       668.46
 1115      811.651        668.6
 1116      812.016       668.76
 1117      812.381       669.38
 1118      812.745       670.02
 1119       813.11       670.06
 1120      813.474        669.7
 1121      813.839       669.46
 1122      814.203       669.48
 1123      814.567        669.1
 1124      814.931       668.62
 1125      815.295       668.82
 1126      815.659        668.8
 1127      816.022       668.06
 1128      816.386       667.64
 1129      816.749        667.8
 1130      817.113       667.58
 1131      817.476        667.3
 1132      817.839       667.14
 1133      818.202       666.66
 1134      818.565       666.14
 1135      818.928       666.12
 1136      819.291        666.7
 1137      819.653       667.38
 1138      820.016       668.36
 1139      820.378        668.9
 1140       820.74       668.68
 1141      821.102       668.32
 1142      821.464       668.54
 1143      821.826       668.74
 1144      822.188       669.22
 1145       822.55       670.14
 1146      822.912       670.92
 1147      823.273       671.24
 1148      823.634       671.12
 1149      823.996       670.48
 1150      824.357        669.6
 1151      824.718       668.42
 1152      825.079       667.24
 1153       825.44       666.52
 1154      825.801       666.34
 1155      826.161       666.68
 1156      826.522       667.24
 1157      826.882       667.46
 1158      827.242       667.76
 1159      827.603        668.3
 1160      827.963       668.04
 1161      828.323        667.9
 1162      828.682       668.74
 1163      829.042       669.64
 1164      829.402        669.6
 1165      829.761        669.6
 1166      830.121       669.92
 1167       830.48       669.56
 1168      830.839       668.94
 1169      831.198       668.98
 1170      831.557       669.58
 1171      831.916       669.58
 1172      832.275       669.62
 1173      832.634       670.04
 1174      832.992        670.5
 1175      833.351       670.36
 1176      833.709       669.98
 1177      834.067       669.66
 1178      834.425       669.14
 1179      834.783       668.58
 1180      835.141       668.48
 1181      835.499       668.78
 1182      835.857       668.96
 1183      836.214       669.04
 1184      836.572       669.12
 1185      836.929       669.14
 1186      837.286        669.3
 1187      837.644       669.52
 1188      838.001       669.44
 1189      838.357       668.98
 1190      838.714        668.3
 1191      839.071       667.66
 1192      839.428       667.14
 1193      839.784       666.96
 1194       840.14       667.58
 1195      840.497       668.72
 1196      840.853       669.98
 1197      841.209       670.88
 1198      841.565       671.18
 1199       841.92       671.04
 1200      842.276       670.84
 1201      842.632       670.16
 1202      842.987       669.34
 1203      843.343       669.08
 1204      843.698        668.7
 1205      844.053       667.94
 1206      844.408       667.18
 1207      844.763       667.16
 1208      845.118       667.78
 1209      845.472       667.82
 1210      845.827        667.4
 1211      846.181       667.42
 1212      846.536       667.66
 1213       846.89       667.34
 1214      847.244       667.54
 1215      847.598       668.36
 1216      847.952       668.82
 1217      848.306       668.56
 1218       848.66        668.1
 1219      849.013       667.96
 1220      849.367       668.24
 1221       849.72       668.46
 1222      850.073       668.44
 1223      850.427       668.62
 1224       850.78       668.68
 1225      851.133        668.2
 1226      851.485       667.86
 1227      851.838       668.14
 1228      852.191       668.48
 1229      852.543        668.4
 1230      852.896       668.52
 1231      853.248        668.7
 1232        853.6       668.46
 1233      853.952       668.26
 1234      854.304       668.52
 1235      854.656       668.76
 1236      855.007       668.72
 1237      855.359       668.84
 1238       855.71       668.96
 1239      856.062       668.78
 1240      856.413       668.44
 1241      856.764       668.18
 1242      857.115       667.68
 1243      857.466       667.22
 1244      857.817       667.12
 1245      858.168       666.96
 1246      858.518       666.98
 1247      858.869       667.48
 1248      859.219       667.58
 1249      859.569       667.62
 1250       859.92       667.84
 1251       860.27       667.84
 1252      860.619       667.84
 1253      860.969        668.3
 1254      861.319       668.42
 1255      861.669        667.9
 1256      862.018       667.52
 1257      862.367       667.42
 1258      862.717       667.18
 1259      863.066       666.88
 1260      863.415       667.06
 1261      863.764        667.5
 1262      864.112       667.34
 1263      864.461       667.14
 1264       864.81       667.36
 1265      865.158       667.62
 1266      865.507        667.8
 1267      865.855       668.46
 1268      866.203       668.96
 1269      866.551       669.16
 1270      866.899       669.58
 1271      867.247       669.86
 1272      867.594       669.68
 1273      867.942       669.32
 1274      868.289       668.74
 1275      868.637       667.98
 1276      868.984       667.64
 1277      869.331       667.54
 1278      869.678        667.5
 1279      870.025       667.96
 1280      870.372       668.62
 1281      870.718       668.46
 1282      871.065       668.16
 1283      871.411       668.42
 1284      871.758       668.32
 1285      872.104        667.7
 1286       872.45       667.62
 1287      872.796       667.78
 1288      873.142       667.56
 1289      873.488       667.46
 1290      873.833        667.7
 1291      874.179       667.98
 1292      874.524       668.04
 1293      874.869        667.9
 1294      875.215        667.8
 1295       875.56       667.64
 1296      875.905       667.66
 1297       876.25        667.8
 1298      876.594       668.18
 1299      876.939       668.46
 1300      877.283       668.62
 1301      877.628       668.82
 1302      877.972          669
 1303      878.316       669.18
 1304       878.66       669.26
 1305      879.004       668.98
 1306      879.348       668.04
 1307      879.692       667.02
 1308      880.035       666.08
 1309      880.379        665.4
 1310      880.722       665.58
 1311      881.066       666.64
 1312      881.409        667.7
 1313      881.752        668.4
 1314      882.095       668.66
 1315      882.438       668.38
 1316       882.78       667.66
 1317      883.123       666.92
 1318      883.465       666.64
 1319      883.808       667.34
 1320       884.15       668.44
 1321      884.492       669.18
 1322      884.834       669.64
 1323      885.176       670.12
 1324      885.518       670.22
 1325      885.859       669.86
 1326      886.201       669.46
 1327      886.542       669.24
 1328      886.884       669.14
 1329      887.225       668.88
 1330      887.566       668.92
 1331      887.907        669.6
 1332      888.248       670.62
 1333      888.589       671.14
 1334      888.929       671.76
 1335       889.27       672.32
 1336       889.61       671.88
 1337      889.951       671.06
 1338      890.291       670.56
 1339      890.631       670.26
 1340      890.971       669.82
 1341      891.311       669.56
 1342       891.65       669.34
 1343       891.99        668.6
 1344      892.329       667.22
 1345      892.669       666.54
 1346      893.008       666.72
 1347      893.347       666.82
 1348      893.686        667.2
 1349      894.025       668.28
 1350      894.364       668.94
 1351      894.703       669.08
 1352      895.041       669.18
 1353       895.38       669.42
 1354      895.718       669.08
 1355      896.056       668.62
 1356      896.395       668.58
 1357      896.733        668.7
 1358      897.071        668.5
 1359      897.408        668.8
 1360      897.746       669.04
 1361      898.084       668.82
 1362      898.421        668.4
 1363      898.758       668.52
 1364      899.095       668.82
 1365      899.433       669.38
 1366       899.77       669.74
 1367      900.106       669.72
 1368      900.443       669.16
 1369       900.78       668.24
 1370      901.116       667.16
 1371      901.453       666.78
 1372      901.789       667.12
 1373      902.125       667.48
 1374      902.461       667.48
 1375      902.797       667.52
 1376      903.133       667.42
 1377      903.469        667.5
 1378      903.804       668.08
 1379       904.14       668.68
 1380      904.475       668.92
 1381       904.81       668.64
 1382      905.146       668.38
 1383      905.481       667.88
 1384      905.815       667.98
 1385       906.15       668.96
 1386      906.485       669.94
 1387      906.819       669.92
 1388      907.154       669.82
 1389      907.488       669.98
 1390      907.822       669.54
 1391      908.156       669.14
 1392       908.49       669.26
 1393      908.824       669.44
 1394      909.158       669.26
 1395      909.492       668.66
 1396      909.825       668.18
 1397      910.159       668.14
 1398      910.492       667.54
 1399      910.825        666.2
 1400      911.158       665.12
 1401      911.491       664.44
 1402      911.824       664.18
 1403      912.157       664.48
 1404      912.489        664.9
 1405      912.822       666.38
 1406      913.154       667.92
 1407      913.486       668.42
 1408      913.818       669.36
 1409       914.15        670.6
 1410      914.482       670.56
 1411      914.814       670.62
 1412      915.146       671.24
 1413      915.477       671.34
 1414      915.809       671.46
 1415       916.14       671.42
 1416      916.471        670.5
 1417      916.802       669.32
 1418      917.133       668.54
 1419      917.464        668.1
 1420      917.795       668.44
 1421      918.125          669
 1422      918.456       669.46
 1423      918.786       669.84
 1424      919.116          670
 1425      919.446       670.02
 1426      919.776       670.36
 1427      920.106       670.44
 1428      920.436       669.82
 1429      920.766       669.08
 1430      921.095       667.98
 1431      921.425       666.94
 1432      921.754       666.98
 1433      922.083       667.76
 1434      922.412       668.16
 1435      922.741       668.42
 1436       923.07       668.58
 1437      923.399       668.34
 1438      923.727       668.12
 1439      924.056       668.28
 1440      924.384       668.52
 1441      924.713       668.66
 1442      925.041       668.58
 1443      925.369       668.26
 1444      925.697       668.38
 1445      926.024       669.08
 1446      926.352       669.66
 1447       926.68       669.94
 1448      927.007       670.08
 1449      927.334       669.78
 1450      927.662       669.32
 1451      927.989       669.36
 1452      928.316       669.54
 1453      928.643       669.56
 1454      928.969       669.84
 1455      929.296        670.3
 1456      929.622       670.74
 1457      929.949       671.16
 1458      930.275       671.34
 1459      930.601       670.98
 1460      930.927       670.48
 1461      931.253       669.76
 1462      931.579       669.24
 1463      931.905        669.4
 1464       932.23        669.3
 1465      932.556       668.56
 1466      932.881       667.96
 1467      933.206        667.3
 1468      933.531       666.74
 1469      933.856        667.3
 1470      934.181       668.08
 1471      934.506       668.06
 1472       934.83       667.88
 1473      935.155       667.78
 1474      935.479        667.6
 1475      935.803       667.76
 1476      936.128       668.42
 1477      936.452       669.06
 1478      936.775       669.64
 1479      937.099       669.82
 1480      937.423       669.66
 1481      937.746       669.62
 1482       938.07        669.8
 1483      938.393       669.72
 1484      938.716       669.52
 1485      939.039       669.62
 1486      939.362        669.5
 1487      939.685       669.28
 1488      940.008       668.94
 1489      940.331        668.5
 1490      940.653       668.58
 1491      940.975       669.02
 1492      941.298       669.28
 1493       941.62       669.44
 1494      941.942       669.72
 1495      942.264        669.7
 1496      942.585       669.14
 1497      942.907       668.58
 1498      943.229       668.18
 1499       943.55       667.64
 1500      943.871       667.38
 1501      944.192       667.38
 1502      944.513       667.48
 1503      944.834        667.7
 1504      945.155       668.26
 1505      945.476       668.76
 1506      945.796       669.76
 1507      946.117       670.74
 1508      946.437       671.06
 1509      946.757       671.04
 1510      947.078       670.82
 1511      947.398        670.3
 1512      947.717       669.28
 1513      948.037       668.64
 1514      948.357       668.08
 1515      948.676       666.96
 1516      948.996       665.96
 1517      949.315       666.32
 1518      949.634        667.2
 1519      949.953       667.84
 1520      950.272       668.32
 1521      950.591       668.48
 1522      950.909       668.08
 1523      951.228       667.26
 1524      951.546       666.46
 1525      951.865       665.88
 1526      952.183        665.5
 1527      952.501       665.06
 1528      952.819        664.7
 1529      953.137       665.14
 1530      953.454       666.32
 1531      953.772       667.18
 1532      954.089       667.46
 1533      954.407        667.8
 1534      954.724       667.94
 1535      955.041       667.46
 1536      955.358       667.04
 1537      955.675       667.06
 1538      955.992       667.12
 1539      956.308       667.36
 1540      956.625        667.7
 1541      956.941       668.42
 1542      957.257       669.42
 1543      957.574       670.08
 1544       957.89        669.9
 1545      958.206       669.52
 1546      958.521       668.94
 1547      958.837       668.22
 1548      959.152       667.88
 1549      959.468       668.08
 1550      959.783       668.44
 1551      960.098       668.54
 1552      960.413       668.58
 1553      960.728       668.96
 1554      961.043       669.38
 1555      961.358       669.78
 1556      961.672       670.24
 1557      961.987       670.68
 1558      962.301       670.36
 1559      962.615       669.66
 1560       962.93       669.08
 1561      963.244        668.8
 1562      963.557        668.4
 1563      963.871       667.86
 1564      964.185       667.48
 1565      964.498       667.36
 1566      964.812       667.62
 1567      965.125        667.7
 1568      965.438       667.72
 1569      965.751       667.72
 1570      966.064        667.4
 1571      966.377       666.94
 1572      966.689       666.86
 1573      967.002       666.94
 1574      967.314       666.76
 1575      967.626       666.58
 1576      967.939       666.54
 1577      968.251       666.26
 1578      968.563       666.14
 1579      968.874       666.54
 1580      969.186       666.78
 1581      969.498       665.92
 1582      969.809       665.32
 1583       970.12       665.62
 1584      970.431       665.64
 1585      970.743       665.88
 1586      971.053       666.76
 1587      971.364       667.48
 1588      971.675       667.56
 1589      971.986       667.74
 1590      972.296       667.88
 1591      972.606       667.96
 1592      972.917       668.28
 1593      973.227       668.34
 1594      973.537       668.52
 1595      973.847        669.1
 1596      974.156       669.92
 1597      974.466       670.04
 1598      974.775       670.32
 1599      975.085        670.7
 1600      975.394        670.5
 1601      975.703       669.74
 1602      976.012       669.12
 1603      976.321       668.58
 1604       976.63       667.96
 1605      976.938        667.6
 1606      977.247        667.6
 1607      977.555       667.78
 1608      977.863       667.64
 1609      978.172        667.5
 1610       978.48       667.46
 1611      978.787       667.48
 1612      979.095       667.22
 1613      979.403       667.26
 1614       979.71       667.66
 1615      980.018       667.84
 1616      980.325        667.8
 1617      980.632       668.66
 1618      980.939       669.48
 1619      981.246        669.7
 1620      981.553       669.98
 1621       981.86       670.16
 1622      982.166       669.64
 1623      982.473       669.34
 1624      982.779       669.34
 1625      983.085       669.46
 1626      983.391       670.06
 1627      983.697       670.84
 1628      984.003        670.8
 1629      984.309       670.62
 1630      984.614       670.56
 1631       984.92       670.04
 1632      985.225        669.7
 1633       985.53       669.96
 1634      985.835       670.18
 1635       986.14       670.32
 1636      986.445       670.38
 1637       986.75       670.04
 1638      987.054       669.48
 1639      987.359       668.98
 1640      987.663       668.28
 1641      987.967       668.38
 1642      988.271        668.8
 1643      988.575       669.42
 1644      988.879       670.34
 1645      989.183        671.1
 1646      989.487       671.28
 1647       989.79       671.52
 1648      990.093       671.78
 1649      990.397       671.48
 1650        990.7       671.28
 1651      991.003       671.12
 1652      991.306        670.6
 1653      991.608       669.68
 1654      991.911        668.7
 1655      992.213       667.76
 1656      992.516       666.88
 1657      992.818       666.64
 1658       993.12       666.74
 1659      993.422       666.96
 1660      993.724       666.88
 1661      994.026       666.76
 1662      994.327       666.54
 1663      994.629        666.1
 1664       994.93       665.62
 1665      995.232        665.8
 1666      995.533       666.52
 1667      995.834       667.42
 1668      996.135       668.84
 1669      996.435       670.42
 1670      996.736       671.38
 1671      997.036        671.8
 1672      997.337        671.7
 1673      997.637       671.26
 1674      997.937       670.98
 1675      998.237        671.2
 1676      998.537       671.34
 1677      998.837       671.58
 1678      999.137          672
 1679      999.436       672.06
 1680      999.735        671.5
 1681      1000.03       671.08
 1682      1000.33       670.62
 1683      1000.63        669.9
 1684      1000.93       669.46
 1685      1001.23       669.76
 1686      1001.53       670.42
 1687      1001.83       671.02
 1688      1002.13        671.5
 1689      1002.42       671.32
 1690      1002.72       670.76
 1691      1003.02        670.1
 1692      1003.32       670.16
 1693      1003.62       670.62
 1694      1003.91       671.12
 1695      1004.21       671.38
 1696      1004.51       671.48
 1697      1004.81       671.06
 1698       1005.1        670.2
 1699       1005.4       669.76
 1700       1005.7       669.46
 1701      1005.99       668.72
 1702      1006.29          668
 1703      1006.59       667.76
 1704      1006.88       667.46
 1705      1007.18       666.96
 1706      1007.48       667.42
 1707      1007.77       668.34
 1708      1008.07       668.64
 1709      1008.36       668.86
 1710      1008.66        669.3
 1711      1008.95       669.06
 1712      1009.25       668.64
 1713      1009.55       668.54
 1714      1009.84       668.56
 1715      1010.14       668.74
 1716      1010.43          669
 1717      1010.73       668.68
 1718      1011.02       668.38
 1719      1011.31       668.16
 1720      1011.61       667.78
 1721       1011.9       667.36
 1722       1012.2       667.34
 1723      1012.49       667.46
 1724      1012.79       667.54
 1725      1013.08       668.16
 1726      1013.37       669.12
 1727      1013.67       670.22
 1728      1013.96       671.36
 1729      1014.25       672.18
 1730      1014.55        672.2
 1731      1014.84       671.82
 1732      1015.13       671.08
 1733      1015.42       669.94
 1734      1015.72       669.06
 1735      1016.01       668.58
 1736       1016.3       668.02
 1737      1016.59       667.44
 1738      1016.89       667.48
 1739      1017.18       667.78
 1740      1017.47        667.9
 1741      1017.76       668.22
 1742      1018.05       668.48
 1743      1018.35       668.08
 1744      1018.64       667.22
 1745      1018.93       666.92
 1746      1019.22       666.72
 1747      1019.51       666.48
 1748       1019.8        666.5
 1749      1020.09       667.04
 1750      1020.38       667.44
 1751      1020.67       667.86
 1752      1020.96       668.16
 1753      1021.25       668.64
 1754      1021.54        669.3
 1755      1021.83       669.22
 1756      1022.12        668.5
 1757      1022.41       668.22
 1758       1022.7       667.88
 1759      1022.99        666.9
 1760      1023.28        666.4
 1761      1023.57       666.22
 1762      1023.86       666.06
 1763      1024.15       666.34
 1764      1024.44        667.1
 1765      1024.73       667.76
 1766      1025.02       668.54
 1767       1025.3        668.9
 1768      1025.59       668.72
 1769      1025.88       668.52
 1770      1026.17       668.24
 1771      1026.46       667.86
 1772      1026.74       667.88
 1773      1027.03       668.18
 1774      1027.32       668.08
 1775      1027.61        668.1
 1776      1027.89       668.58
 1777      1028.18       668.82
 1778      1028.47       668.56
 1779      1028.76       668.42
 1780      1029.04        668.1
 1781      1029.33        667.3
 1782      1029.62       667.08
 1783       1029.9       667.38
 1784      1030.19       667.76
 1785      1030.47       668.36
 1786      1030.76       669.26
 1787      1031.05       669.66
 1788      1031.33       669.86
 1789      1031.62       669.92
 1790       1031.9        669.1
 1791      1032.19       668.02
 1792      1032.47       667.38
 1793      1032.76        666.8
 1794      1033.04       666.08
 1795      1033.33       666.24
 1796      1033.61        666.4
 1797       1033.9       665.92
 1798      1034.18       665.76
 1799      1034.47       665.62
 1800      1034.75       665.78
 1801      1035.04        666.1
 1802      1035.32       666.64
 1803       1035.6        666.8
 1804      1035.89       666.72
 1805      1036.17       666.46
 1806      1036.45       666.74
 1807      1036.74       667.18
 1808      1037.02       667.44
 1809       1037.3       667.94
 1810      1037.59       668.34
 1811      1037.87        668.5
 1812      1038.15       668.46
 1813      1038.44       668.48
 1814      1038.72       668.72
 1815         1039       668.72
 1816      1039.28       668.26
 1817      1039.56       668.02
 1818      1039.85        667.7
 1819      1040.13       667.72
 1820      1040.41       668.52
 1821      1040.69       669.14
 1822      1040.97       669.12
 1823      1041.25       669.32
 1824      1041.54        669.2
 1825      1041.82       668.52
 1826       1042.1       668.26
 1827      1042.38       668.76
 1828      1042.66        669.5
 1829      1042.94       670.02
 1830      1043.22        670.6
 1831       1043.5       671.22
 1832      1043.78       671.36
 1833      1044.06       671.14
 1834      1044.34       671.26
 1835      1044.62          671
 1836       1044.9       670.32
 1837      1045.18       670.02
 1838      1045.46        669.9
 1839      1045.74        669.7
 1840      1046.02       669.34
 1841       1046.3       669.08
 1842      1046.58       668.48
 1843      1046.85       667.56
 1844      1047.13       666.96
 1845      1047.41       667.36
 1846      1047.69       668.12
 1847      1047.97       668.56
 1848      1048.25       669.28
 1849      1048.52       669.84
 1850       1048.8       669.98
 1851      1049.08       669.72
 1852      1049.36       669.54
 1853      1049.63       668.92
 1854      1049.91       668.02
 1855      1050.19       667.22
 1856      1050.47       666.58
 1857      1050.74       666.26
 1858      1051.02        666.7
 1859       1051.3       667.64
 1860      1051.57       668.44
 1861      1051.85       669.14
 1862      1052.13       669.72
 1863       1052.4       669.54
 1864      1052.68       668.76
 1865      1052.95       668.04
 1866      1053.23       667.98
 1867      1053.51       668.54
 1868      1053.78       669.24
 1869      1054.06       669.74
 1870      1054.33       670.18
 1871      1054.61       669.98
 1872      1054.88       669.26
 1873      1055.16        668.9
 1874      1055.43       669.28
 1875      1055.71       669.78
 1876      1055.98       670.02
 1877      1056.25          670
 1878      1056.53       669.74
 1879       1056.8        669.1
 1880      1057.08       668.26
 1881      1057.35        667.8
 1882      1057.62       667.72
 1883       1057.9        667.6
 1884      1058.17       667.52
 1885      1058.45        667.7
 1886      1058.72       667.88
 1887      1058.99       667.78
 1888      1059.26       667.84
 1889      1059.54       668.12
 1890      1059.81       668.32
 1891      1060.08       668.32
 1892      1060.35       668.66
 1893      1060.63       669.18
 1894       1060.9       669.54
 1895      1061.17       669.66
 1896      1061.44       669.22
 1897      1061.71       668.38
 1898      1061.99        667.5
 1899      1062.26       666.44
 1900      1062.53       665.62
 1901       1062.8       665.44
 1902      1063.07       665.56
 1903      1063.34          666
 1904      1063.61       666.94
 1905      1063.88       668.04
 1906      1064.15       669.04
 1907      1064.42       669.88
 1908       1064.7       670.08
 1909      1064.97        669.9
 1910      1065.24        669.3
 1911      1065.51       668.72
 1912      1065.78        668.7
 1913      1066.04       668.96
 1914      1066.31       668.96
 1915      1066.58        668.7
 1916      1066.85       668.26
 1917      1067.12       667.86
 1918      1067.39       667.52
 1919      1067.66       667.28
 1920      1067.93        667.7
 1921       1068.2       668.84
 1922      1068.47       669.24
 1923      1068.73       668.94
 1924         1069       669.06
 1925      1069.27        669.1
 1926      1069.54       668.46
 1927      1069.81       667.96
 1928      1070.07        668.5
 1929      1070.34       668.88
 1930      1070.61        668.8
 1931      1070.88       668.54
 1932      1071.14       668.48
 1933      1071.41       668.46
 1934      1071.68       668.26
 1935      1071.94        668.1
 1936      1072.21       668.64
 1937      1072.48       668.86
 1938      1072.74       668.22
 1939      1073.01       667.82
 1940      1073.28       668.18
 1941      1073.54       668.48
 1942      1073.81       668.36
 1943      1074.07       668.44
 1944      1074.34       668.76
 1945       1074.6       668.78
 1946      1074.87       668.48
 1947      1075.13        669.1
 1948       1075.4       669.82
 1949      1075.66        669.9
 1950      1075.93       669.78
 1951      1076.19        669.9
 1952      1076.46          670
 1953      1076.72       670.08
 1954      1076.99       669.96
 1955      1077.25        669.6
 1956      1077.52       669.26
 1957      1077.78       668.78
 1958      1078.04       668.14
 1959      1078.31       667.86
 1960      1078.57       667.86
 1961      1078.83       667.74
 1962       1079.1        667.2
 1963      1079.36        666.9
 1964      1079.62        666.8
 1965      1079.89        666.5
 1966      1080.15       666.06
 1967      1080.41       665.94
 1968      1080.67          666
 1969      1080.94       666.16
 1970       1081.2       666.42
 1971      1081.46       666.98
 1972      1081.72        667.9
 1973      1081.98        668.5
 1974      1082.24        668.7
 1975      1082.51       669.16
 1976      1082.77       669.58
 1977      1083.03       669.64
 1978      1083.29       669.92
 1979      1083.55       670.14
 1980      1083.81       669.98
 1981      1084.07       669.92
 1982      1084.33        670.2
 1983      1084.59       670.66
 1984      1084.85       671.12
 1985      1085.11       671.58
 1986      1085.37       671.16
 1987      1085.63       669.92
 1988      1085.89       668.66
 1989      1086.15          668
 1990      1086.41       667.68
 1991      1086.67          668
 1992      1086.93        668.3
 1993      1087.19       668.12
 1994      1087.45        668.2
 1995      1087.71       668.68
 1996      1087.97        669.5
 1997      1088.23       670.74
 1998      1088.48       671.74
 1999      1088.74       671.82
 2000         1089       671.14
 2001      1089.26       669.98
 2002      1089.52       668.84
 2003      1089.77       668.28
 2004      1090.03       667.68
 2005      1090.29       667.34
 2006      1090.55       667.48
 2007       1090.8       667.56
 2008      1091.06       667.36
 2009      1091.32       667.38
 2010      1091.57       667.28
 2011      1091.83       666.86
 2012      1092.09       666.72
 2013      1092.34       667.24
 2014       1092.6       668.08
 2015      1092.86        668.6
 2016      1093.11        668.9
 2017      1093.37          669
 2018      1093.62       668.78
 2019      1093.88        668.9
 2020      1094.13       669.64
 2021      1094.39       669.72
 2022      1094.65       669.22
 2023       1094.9       669.06
 2024      1095.16       668.72
 2025      1095.41       668.02
 2026      1095.66       668.28
 2027      1095.92       669.44
 2028      1096.17        670.1
 2029      1096.43        669.8
 2030      1096.68       669.22
 2031      1096.94        669.3
 2032      1097.19        669.2
 2033      1097.44       668.68
 2034       1097.7        668.5
 2035      1097.95       668.54
 2036       1098.2       667.94
 2037      1098.46       667.54
 2038      1098.71       667.62
 2039      1098.96       667.76
 2040      1099.22       668.34
 2041      1099.47       669.02
 2042      1099.72       669.46
 2043      1099.97       670.18
 2044      1100.23       671.06
 2045      1100.48       672.18
 2046      1100.73       672.65
 2047      1100.98      673.333
