scansci Spectrometer Data File
--- Measurement Setting ---
Type: Sample Spectrum
Date: Mon Oct 16 16:21:37 2023
User: (Reserved by scansci)
Serial: (Reserved by scansci)
Channel: No. 11
Integration Time: 1
Average: 10
Boxcar: 2
Electrical Dark: No-corrected
Time Normalize: (Reserved by scansci)
Dual-beam: (Reserved by scansci)
Reference Ch: (Reserved by scansci)
--- Measurement Data ---
Pixel   Wavelength   Intensity
    0        162.5      634.333
    1      162.985        635.4
    2      163.469        636.2
    3      163.954       637.38
    4      164.439       637.84
    5      164.923       637.64
    6      165.408        636.9
    7      165.892       636.48
    8      166.377       636.64
    9      166.861       637.14
   10      167.345       638.14
   11       167.83       638.56
   12      168.314        638.2
   13      168.798        637.7
   14      169.282        637.4
   15      169.766       636.74
   16       170.25       636.64
   17      170.734       636.76
   18      171.218       636.46
   19      171.702       636.08
   20      172.185        635.6
   21      172.669       635.58
   22      173.153       635.92
   23      173.636        636.4
   24       174.12        637.2
   25      174.603       639.12
   26      175.087       640.74
   27       175.57       641.92
   28      176.053       643.36
   29      176.537       644.52
   30       177.02       644.92
   31      177.503          646
   32      177.986       647.66
   33      178.469        649.7
   34      178.952       652.16
   35      179.435        654.9
   36      179.918       657.56
   37      180.401       660.38
   38      180.884       662.38
   39      181.366       663.48
   40      181.849       664.24
   41      182.332       664.64
   42      182.814       664.34
   43      183.297       663.68
   44      183.779        662.9
   45      184.262        662.2
   46      184.744       661.44
   47      185.226       660.58
   48      185.708       660.08
   49      186.191          660
   50      186.673        659.7
   51      187.155       659.08
   52      187.637       658.72
   53      188.119       658.76
   54        188.6        658.7
   55      189.082        658.4
   56      189.564       658.34
   57      190.046       659.26
   58      190.527       660.14
   59      191.009       660.68
   60      191.491        661.4
   61      191.972        661.2
   62      192.454       660.04
   63      192.935       659.68
   64      193.416        659.7
   65      193.897       659.38
   66      194.379       659.88
   67       194.86       660.46
   68      195.341       659.84
   69      195.822       659.08
   70      196.303        658.9
   71      196.784       658.58
   72      197.265       658.64
   73      197.746       659.52
   74      198.226       660.76
   75      198.707       661.02
   76      199.188        660.6
   77      199.668       659.58
   78      200.149       658.24
   79      200.629       656.92
   80       201.11       656.68
   81       201.59       657.88
   82       202.07       659.52
   83       202.55       660.64
   84      203.031       660.96
   85      203.511       660.72
   86      203.991       659.52
   87      204.471       657.44
   88      204.951       655.42
   89      205.431       654.06
   90       205.91        653.2
   91       206.39       652.78
   92       206.87       652.82
   93      207.349       652.72
   94      207.829       652.62
   95      208.309       653.34
   96      208.788       654.72
   97      209.267        656.3
   98      209.747       657.92
   99      210.226       659.04
  100      210.705       659.04
  101      211.185       657.74
  102      211.664        656.2
  103      212.143       655.04
  104      212.622       654.22
  105      213.101       654.06
  106      213.579       654.54
  107      214.058       655.24
  108      214.537       656.46
  109      215.016       658.06
  110      215.494       659.04
  111      215.973       659.22
  112      216.452       659.04
  113       216.93       658.02
  114      217.408       656.54
  115      217.887       655.36
  116      218.365       654.94
  117      218.843       654.78
  118      219.321       654.94
  119      219.799       655.26
  120      220.278       655.46
  121      220.755       655.58
  122      221.233       655.96
  123      221.711       656.32
  124      222.189       656.36
  125      222.667       655.96
  126      223.144       655.34
  127      223.622       654.62
  128        224.1       654.26
  129      224.577       654.36
  130      225.055       654.82
  131      225.532       655.22
  132      226.009       655.36
  133      226.486       654.94
  134      226.964       654.02
  135      227.441       652.98
  136      227.918        652.1
  137      228.395        651.4
  138      228.872       651.28
  139      229.349       651.74
  140      229.826        652.1
  141      230.302       653.08
  142      230.779        654.2
  143      231.256       654.86
  144      231.732       655.16
  145      232.209       655.72
  146      232.685       656.02
  147      233.162       656.14
  148      233.638       655.82
  149      234.114       655.16
  150       234.59       654.64
  151      235.066          654
  152      235.543        653.3
  153      236.019       652.78
  154      236.495       652.32
  155       236.97       651.34
  156      237.446       650.44
  157      237.922       650.12
  158      238.398       650.66
  159      238.873       651.62
  160      239.349       652.38
  161      239.824        652.9
  162        240.3       652.82
  163      240.775       651.92
  164      241.251       650.96
  165      241.726       650.34
  166      242.201       650.06
  167      242.676       650.18
  168      243.151        650.7
  169      243.626       651.48
  170      244.101       652.52
  171      244.576       652.66
  172      245.051       652.12
  173      245.526       651.26
  174          246       649.76
  175      246.475          649
  176       246.95        649.4
  177      247.424       649.68
  178      247.899       649.92
  179      248.373       650.94
  180      248.847       651.66
  181      249.321       651.98
  182      249.796        652.6
  183       250.27       653.08
  184      250.744       653.22
  185      251.218        653.1
  186      251.692       653.58
  187      252.166       654.52
  188      252.639       655.38
  189      253.113       656.28
  190      253.587        656.9
  191       254.06       656.34
  192      254.534        655.2
  193      255.007       654.52
  194      255.481       653.92
  195      255.954        653.3
  196      256.427       653.24
  197      256.901       654.14
  198      257.374       655.14
  199      257.847       655.88
  200       258.32       656.38
  201      258.793       656.08
  202      259.266       654.28
  203      259.739       652.24
  204      260.211       650.48
  205      260.684       649.28
  206      261.157       649.54
  207      261.629       650.68
  208      262.102        651.5
  209      262.574       651.86
  210      263.046       651.78
  211      263.519       650.58
  212      263.991        649.1
  213      264.463       648.86
  214      264.935        649.1
  215      265.407        649.1
  216      265.879       649.18
  217      266.351       649.44
  218      266.823       649.16
  219      267.295       648.96
  220      267.766       648.72
  221      268.238        648.6
  222       268.71       649.08
  223      269.181        649.8
  224      269.653       650.42
  225      270.124       651.48
  226      270.595       652.66
  227      271.066        653.1
  228      271.538       652.66
  229      272.009       651.78
  230       272.48       650.82
  231      272.951       649.92
  232      273.422       649.48
  233      273.892       649.64
  234      274.363       650.02
  235      274.834        650.4
  236      275.305       651.08
  237      275.775       651.56
  238      276.246       651.74
  239      276.716       651.82
  240      277.186       651.78
  241      277.657       651.24
  242      278.127       650.72
  243      278.597       650.28
  244      279.067        650.1
  245      279.537       649.72
  246      280.007       649.42
  247      280.477       649.54
  248      280.947       649.76
  249      281.417       650.06
  250      281.886       650.64
  251      282.356       650.82
  252      282.825       650.06
  253      283.295       649.12
  254      283.764       648.18
  255      284.234       647.22
  256      284.703        646.6
  257      285.172       646.58
  258      285.641       646.88
  259       286.11       646.98
  260      286.579       647.38
  261      287.048       648.26
  262      287.517       649.12
  263      287.986       650.08
  264      288.454       650.88
  265      288.923       650.94
  266      289.392       650.46
  267       289.86        649.6
  268      290.329       648.48
  269      290.797        647.6
  270      291.265        647.2
  271      291.734        647.2
  272      292.202       647.52
  273       292.67        647.5
  274      293.138       647.36
  275      293.606       647.48
  276      294.074       647.88
  277      294.541       648.22
  278      295.009       648.38
  279      295.477       648.94
  280      295.944       649.56
  281      296.412       649.72
  282      296.879       650.16
  283      297.347       650.74
  284      297.814       650.66
  285      298.281       650.16
  286      298.749        649.4
  287      299.216        647.9
  288      299.683       646.56
  289       300.15        646.1
  290      300.616       646.06
  291      301.083       646.14
  292       301.55       646.36
  293      302.017       646.62
  294      302.483       646.56
  295       302.95       646.28
  296      303.416          646
  297      303.883       645.86
  298      304.349       645.88
  299      304.815       645.62
  300      305.281        645.4
  301      305.748       645.08
  302      306.214       644.52
  303       306.68          644
  304      307.146       643.62
  305      307.611       643.18
  306      308.077       643.18
  307      308.543       643.92
  308      309.008       644.48
  309      309.474       644.96
  310      309.939       645.18
  311      310.405       644.48
  312       310.87       643.66
  313      311.335        643.5
  314        311.8       643.64
  315      312.266       644.36
  316      312.731       645.62
  317      313.196       646.54
  318       313.66       646.44
  319      314.125       645.52
  320       314.59       643.88
  321      315.055       642.66
  322      315.519        642.6
  323      315.984       643.02
  324      316.448       643.54
  325      316.913       644.34
  326      317.377       644.82
  327      317.841       643.86
  328      318.305       642.98
  329      318.769       642.68
  330      319.233       643.18
  331      319.697       644.18
  332      320.161       645.16
  333      320.625       645.46
  334      321.089       645.48
  335      321.552       644.92
  336      322.016       643.78
  337      322.479       643.02
  338      322.943       642.72
  339      323.406       642.62
  340      323.869        642.5
  341      324.333       642.14
  342      324.796        642.5
  343      325.259       642.48
  344      325.722       641.44
  345      326.185        640.5
  346      326.647       640.48
  347       327.11       640.06
  348      327.573        640.4
  349      328.035       641.68
  350      328.498       642.54
  351       328.96       642.96
  352      329.423       643.22
  353      329.885       643.54
  354      330.347       644.18
  355       330.81       645.34
  356      331.272        646.6
  357      331.734       647.06
  358      332.196       646.42
  359      332.657        645.3
  360      333.119       644.52
  361      333.581       643.54
  362      334.043       643.02
  363      334.504       643.92
  364      334.966       644.76
  365      335.427       644.16
  366      335.888       643.78
  367       336.35       643.42
  368      336.811       642.42
  369      337.272       641.68
  370      337.733        641.3
  371      338.194        641.2
  372      338.655       641.48
  373      339.115       641.62
  374      339.576       642.16
  375      340.037       643.08
  376      340.497       642.78
  377      340.958       641.96
  378      341.418       641.36
  379      341.879       640.28
  380      342.339        639.5
  381      342.799       639.86
  382      343.259        640.3
  383      343.719       641.18
  384      344.179       642.06
  385      344.639       642.32
  386      345.099          642
  387      345.559       642.02
  388      346.018       641.52
  389      346.478       640.92
  390      346.937       641.12
  391      347.397        641.7
  392      347.856       641.76
  393      348.315       641.76
  394      348.774       641.66
  395      349.234       641.24
  396      349.693       640.54
  397      350.152       640.28
  398       350.61       640.36
  399      351.069       640.42
  400      351.528       640.56
  401      351.987       640.34
  402      352.445       639.54
  403      352.904       638.28
  404      353.362       637.58
  405       353.82       637.02
  406      354.279       636.86
  407      354.737        637.5
  408      355.195       638.38
  409      355.653       638.78
  410      356.111       638.82
  411      356.569       639.08
  412      357.027       639.16
  413      357.484       639.04
  414      357.942       639.06
  415      358.399       639.06
  416      358.857        639.1
  417      359.314       638.92
  418      359.772       638.82
  419      360.229       638.88
  420      360.686       639.52
  421      361.143       640.28
  422        361.6       640.94
  423      362.057        641.9
  424      362.514       642.92
  425      362.971       643.02
  426      363.427       642.78
  427      363.884       642.68
  428       364.34       641.96
  429      364.797       641.04
  430      365.253       640.58
  431      365.709       640.46
  432      366.166        640.5
  433      366.622       640.28
  434      367.078        639.6
  435      367.534        639.2
  436       367.99       638.92
  437      368.445       638.56
  438      368.901       639.12
  439      369.357        640.2
  440      369.812       640.68
  441      370.268       640.66
  442      370.723        640.8
  443      371.179       640.82
  444      371.634       640.92
  445      372.089        641.3
  446      372.544       641.72
  447      372.999        641.7
  448      373.454       641.56
  449      373.909       641.42
  450      374.364        641.3
  451      374.818       641.44
  452      375.273          642
  453      375.727       642.22
  454      376.182       641.72
  455      376.636       641.12
  456       377.09       640.34
  457      377.545        639.6
  458      377.999       639.42
  459      378.453       639.64
  460      378.907       639.54
  461      379.361       639.36
  462      379.814       638.88
  463      380.268       638.12
  464      380.722       637.56
  465      381.175       637.52
  466      381.629       637.72
  467      382.082       637.84
  468      382.535       637.98
  469      382.989       638.34
  470      383.442       638.98
  471      383.895       639.28
  472      384.348       639.52
  473      384.801       639.84
  474      385.253       640.08
  475      385.706       639.92
  476      386.159       639.96
  477      386.611       640.02
  478      387.064       639.82
  479      387.516       639.82
  480      387.968       639.66
  481      388.421       638.74
  482      388.873       638.36
  483      389.325        638.8
  484      389.777       638.92
  485      390.229       639.14
  486      390.681       639.72
  487      391.132        639.9
  488      391.584        639.9
  489      392.035        639.7
  490      392.487       639.06
  491      392.938       638.66
  492       393.39       638.28
  493      393.841       637.38
  494      394.292       636.58
  495      394.743       636.68
  496      395.194        637.6
  497      395.645          639
  498      396.096       640.54
  499      396.546       641.86
  500      396.997        642.5
  501      397.448       642.08
  502      397.898       641.08
  503      398.349       640.36
  504      398.799       640.28
  505      399.249        640.3
  506      399.699        640.4
  507      400.149        640.5
  508      400.599        640.4
  509      401.049        640.5
  510      401.499        640.9
  511      401.949       641.34
  512      402.398        641.9
  513      402.848       642.24
  514      403.297       642.08
  515      403.747       641.48
  516      404.196       640.96
  517      404.645       641.02
  518      405.094       640.92
  519      405.543       640.54
  520      405.992       640.24
  521      406.441        640.2
  522       406.89       639.64
  523      407.339       639.08
  524      407.787       638.98
  525      408.236       639.22
  526      408.684       639.22
  527      409.132       638.98
  528      409.581       639.08
  529      410.029       639.46
  530      410.477       639.48
  531      410.925       638.96
  532      411.373        639.1
  533      411.821       639.56
  534      412.269       639.64
  535      412.716       639.68
  536      413.164       640.28
  537      413.611       640.68
  538      414.059       640.64
  539      414.506       640.24
  540      414.953       639.98
  541        415.4        639.2
  542      415.847       638.02
  543      416.294       637.34
  544      416.741       636.86
  545      417.188        636.6
  546      417.635        637.1
  547      418.081       637.48
  548      418.528       637.08
  549      418.974       636.76
  550      419.421       636.54
  551      419.867       636.18
  552      420.313       636.52
  553      420.759       637.42
  554      421.205       638.46
  555      421.651       639.14
  556      422.097       639.62
  557      422.543        639.8
  558      422.989       639.96
  559      423.434       639.82
  560       423.88       639.46
  561      424.325       639.64
  562       424.77       640.08
  563      425.216       640.14
  564      425.661       640.32
  565      426.106       640.78
  566      426.551       639.98
  567      426.996        638.6
  568       427.44       637.44
  569      427.885       636.22
  570       428.33       635.54
  571      428.774       636.44
  572      429.219       637.64
  573      429.663       638.54
  574      430.107       639.72
  575      430.551       640.54
  576      430.996       640.06
  577       431.44       638.64
  578      431.883       637.44
  579      432.327       636.02
  580      432.771       633.94
  581      433.215       632.66
  582      433.658       632.74
  583      434.102       633.08
  584      434.545       633.74
  585      434.988       635.24
  586      435.431        636.6
  587      435.875       637.42
  588      436.318       638.26
  589      436.761        639.1
  590      437.203       639.76
  591      437.646       640.74
  592      438.089       641.92
  593      438.531       642.18
  594      438.974       641.34
  595      439.416       640.54
  596      439.859       639.62
  597      440.301       638.64
  598      440.743       638.24
  599      441.185       638.94
  600      441.627       639.92
  601      442.069       640.76
  602       442.51        641.4
  603      442.952       641.74
  604      443.394        642.2
  605      443.835       642.64
  606      444.277        642.9
  607      444.718       643.26
  608      445.159       644.02
  609        445.6       644.48
  610      446.041       644.62
  611      446.482       644.56
  612      446.923       644.12
  613      447.364        643.5
  614      447.804       642.96
  615      448.245       642.34
  616      448.685       641.22
  617      449.126       640.02
  618      449.566       639.24
  619      450.006       638.82
  620      450.447        639.2
  621      450.887       640.48
  622      451.326       642.04
  623      451.766       643.42
  624      452.206       644.44
  625      452.646       644.74
  626      453.085       644.18
  627      453.525       643.24
  628      453.964       642.36
  629      454.403       641.12
  630      454.843        639.5
  631      455.282       638.66
  632      455.721       638.54
  633       456.16       638.46
  634      456.599       638.04
  635      457.037       637.66
  636      457.476       637.72
  637      457.915       638.14
  638      458.353       638.68
  639      458.791        639.6
  640       459.23       640.72
  641      459.668       641.04
  642      460.106       640.48
  643      460.544        640.3
  644      460.982        640.8
  645       461.42       641.52
  646      461.857       642.16
  647      462.295        642.8
  648      462.733        642.7
  649       463.17       641.66
  650      463.607       640.42
  651      464.045        639.9
  652      464.482       640.12
  653      464.919       640.38
  654      465.356       641.12
  655      465.793       641.88
  656       466.23       642.06
  657      466.666       641.94
  658      467.103       642.66
  659      467.539        643.5
  660      467.976       644.02
  661      468.412       644.56
  662      468.848       645.24
  663      469.284       644.96
  664       469.72       644.36
  665      470.156       644.28
  666      470.592       644.86
  667      471.028       645.72
  668      471.464       646.44
  669      471.899          647
  670      472.335       647.76
  671       472.77       648.22
  672      473.205       647.48
  673      473.641       646.54
  674      474.076       645.46
  675      474.511        644.1
  676      474.946       642.76
  677       475.38       642.28
  678      475.815       642.92
  679       476.25          644
  680      476.684        644.4
  681      477.119       643.96
  682      477.553       643.22
  683      477.987       642.12
  684      478.421        641.1
  685      478.856       640.62
  686      479.289        640.9
  687      479.723        641.8
  688      480.157       642.48
  689      480.591       642.84
  690      481.024        643.3
  691      481.458       643.84
  692      481.891        643.8
  693      482.324       643.18
  694      482.758       642.26
  695      483.191       641.54
  696      483.624       641.28
  697      484.057       641.24
  698      484.489       641.38
  699      484.922       642.38
  700      485.355        643.3
  701      485.787        643.6
  702       486.22        643.9
  703      486.652        644.4
  704      487.084       644.42
  705      487.516       644.42
  706      487.948       644.96
  707       488.38       645.72
  708      488.812       646.52
  709      489.244       647.42
  710      489.676       648.22
  711      490.107       648.28
  712      490.539       647.84
  713       490.97       647.08
  714      491.401       646.54
  715      491.832       646.26
  716      492.263        646.1
  717      492.694        645.9
  718      493.125        646.2
  719      493.556        646.5
  720      493.987        646.2
  721      494.417       645.56
  722      494.848       645.22
  723      495.278       645.06
  724      495.708       645.04
  725      496.139       645.38
  726      496.569       645.82
  727      496.999       645.96
  728      497.429        646.2
  729      497.858       646.66
  730      498.288        646.7
  731      498.718       646.76
  732      499.147       647.72
  733      499.577       648.56
  734      500.006       648.54
  735      500.435       648.46
  736      500.864       648.64
  737      501.293       648.32
  738      501.722       647.48
  739      502.151       646.92
  740       502.58       647.02
  741      503.008        647.2
  742      503.437       647.16
  743      503.865       647.16
  744      504.293       646.98
  745      504.722       646.82
  746       505.15       646.44
  747      505.578       646.24
  748      506.006       646.36
  749      506.434       646.32
  750      506.861       646.16
  751      507.289       646.66
  752      507.716       647.28
  753      508.144        647.7
  754      508.571       648.66
  755      508.998       649.34
  756      509.425       649.48
  757      509.852       649.56
  758      510.279        649.3
  759      510.706       648.66
  760      511.133       648.26
  761       511.56       647.74
  762      511.986       647.72
  763      512.412       648.52
  764      512.839       649.18
  765      513.265       649.94
  766      513.691       650.98
  767      514.117       651.22
  768      514.543       651.04
  769      514.969       650.98
  770      515.395       650.46
  771       515.82       649.94
  772      516.246        649.4
  773      516.671       648.88
  774      517.096       648.66
  775      517.522        648.9
  776      517.947       649.28
  777      518.372       649.64
  778      518.797       649.84
  779      519.222       650.72
  780      519.646       651.84
  781      520.071       652.48
  782      520.495        653.2
  783       520.92       654.28
  784      521.344        655.3
  785      521.768       656.22
  786      522.192       657.48
  787      522.616       659.12
  788       523.04       660.44
  789      523.464        660.6
  790      523.888       660.18
  791      524.311        659.9
  792      524.735       660.04
  793      525.158       661.14
  794      525.581        663.1
  795      526.005       666.24
  796      526.428       670.02
  797      526.851       673.96
  798      527.274       678.56
  799      527.696        683.9
  800      528.119       689.12
  801      528.542          695
  802      528.964       702.12
  803      529.386        709.9
  804      529.809       718.28
  805      530.231       727.88
  806      530.653       738.76
  807      531.075       750.72
  808      531.497       763.88
  809      531.918       779.16
  810       532.34       796.52
  811      532.761       815.56
  812      533.183        836.2
  813      533.604       858.92
  814      534.025       883.64
  815      534.447       910.04
  816      534.868       937.64
  817      535.289        967.6
  818      535.709       999.18
  819       536.13       1031.7
  820      536.551       1065.9
  821      536.971      1101.36
  822      537.392      1137.26
  823      537.812         1175
  824      538.232      1215.46
  825      538.652      1256.84
  826      539.072      1298.06
  827      539.492      1338.82
  828      539.912       1377.7
  829      540.331       1415.2
  830      540.751      1454.68
  831       541.17      1498.16
  832       541.59      1542.88
  833      542.009      1588.44
  834      542.428      1634.52
  835      542.847      1678.82
  836      543.266      1720.08
  837      543.685      1760.32
  838      544.104      1799.58
  839      544.522       1840.5
  840      544.941      1884.04
  841      545.359       1927.9
  842      545.778      1973.14
  843      546.196      2021.78
  844      546.614      2071.56
  845      547.032      2120.18
  846       547.45      2168.12
  847      547.867      2214.42
  848      548.285      2260.64
  849      548.703         2308
  850       549.12      2356.12
  851      549.538      2406.62
  852      549.955      2461.22
  853      550.372      2515.26
  854      550.789      2568.58
  855      551.206      2622.64
  856      551.623       2675.7
  857      552.039      2731.06
  858      552.456         2793
  859      552.873      2858.54
  860      553.289      2929.82
  861      553.705      3008.36
  862      554.121       3091.4
  863      554.537      3175.14
  864      554.953      3256.38
  865      555.369      3335.06
  866      555.785         3412
  867      556.201      3485.82
  868      556.616      3557.88
  869      557.032      3634.02
  870      557.447      3713.42
  871      557.862      3801.34
  872      558.277       3899.4
  873      558.692      4001.44
  874      559.107      4102.72
  875      559.522      4203.36
  876      559.937      4301.38
  877      560.351      4395.46
  878      560.766      4491.08
  879       561.18      4584.78
  880      561.595       4671.9
  881      562.009      4754.32
  882      562.423      4831.52
  883      562.837      4899.54
  884       563.25      4969.34
  885      563.664      5048.64
  886      564.078      5126.58
  887      564.491      5201.98
  888      564.905      5279.38
  889      565.318      5349.22
  890      565.731      5401.38
  891      566.144      5448.52
  892      566.557      5495.34
  893       566.97      5537.94
  894      567.383      5584.56
  895      567.795      5639.12
  896      568.208      5694.52
  897       568.62      5751.72
  898      569.033       5810.1
  899      569.445      5861.26
  900      569.857      5915.34
  901      570.269       5980.9
  902      570.681      6050.28
  903      571.093       6130.6
  904      571.504      6226.56
  905      571.916      6323.64
  906      572.327       6421.9
  907      572.739       6515.9
  908       573.15       6599.7
  909      573.561      6676.36
  910      573.972      6752.14
  911      574.383      6828.92
  912      574.794      6914.62
  913      575.204      7001.96
  914      575.615      7084.46
  915      576.025      7162.44
  916      576.436      7225.76
  917      576.846      7264.64
  918      577.256      7287.78
  919      577.666      7311.76
  920      578.076      7344.62
  921      578.486      7391.68
  922      578.896      7451.82
  923      579.305      7519.18
  924      579.715       7578.8
  925      580.124      7620.86
  926      580.533      7646.36
  927      580.942       7665.3
  928      581.351      7679.98
  929       581.76       7689.6
  930      582.169      7699.18
  931      582.578         7706
  932      582.986      7712.64
  933      583.395       7722.3
  934      583.803      7736.74
  935      584.212      7757.44
  936       584.62      7780.88
  937      585.028      7798.42
  938      585.436      7811.58
  939      585.843      7821.06
  940      586.251      7815.28
  941      586.659      7793.18
  942      587.066      7779.16
  943      587.474      7770.78
  944      587.881      7759.92
  945      588.288      7751.08
  946      588.695      7745.62
  947      589.102       7740.2
  948      589.509      7731.18
  949      589.915      7721.72
  950      590.322      7718.66
  951      590.728      7724.06
  952      591.135      7722.52
  953      591.541      7718.64
  954      591.947      7714.56
  955      592.353      7710.98
  956      592.759      7711.52
  957      593.165      7715.16
  958      593.571      7715.18
  959      593.976       7714.7
  960      594.382      7712.38
  961      594.787      7698.44
  962      595.192       7674.1
  963      595.597      7647.42
  964      596.002      7623.08
  965      596.407      7599.56
  966      596.812      7575.22
  967      597.217      7545.14
  968      597.621      7516.08
  969      598.026      7492.56
  970       598.43      7475.04
  971      598.834      7464.54
  972      599.238       7458.6
  973      599.642       7446.7
  974      600.046      7420.88
  975       600.45      7382.36
  976      600.854      7338.76
  977      601.257      7302.54
  978      601.661      7274.86
  979      602.064      7252.68
  980      602.467      7233.62
  981       602.87      7215.84
  982      603.273      7194.16
  983      603.676      7169.64
  984      604.079       7148.9
  985      604.481      7123.84
  986      604.884      7085.18
  987      605.286      7044.26
  988      605.689      7005.46
  989      606.091      6963.02
  990      606.493      6927.12
  991      606.895      6904.42
  992      607.297      6882.52
  993      607.698      6854.32
  994        608.1      6820.22
  995      608.501       6778.8
  996      608.903       6737.9
  997      609.304      6702.22
  998      609.705      6673.94
  999      610.106      6655.08
 1000      610.507       6637.8
 1001      610.908      6610.84
 1002      611.308      6573.82
 1003      611.709      6528.04
 1004      612.109      6472.58
 1005       612.51      6424.66
 1006       612.91      6387.26
 1007       613.31      6354.52
 1008       613.71      6330.34
 1009       614.11      6307.74
 1010       614.51       6275.8
 1011      614.909      6245.92
 1012      615.309      6218.52
 1013      615.708      6185.18
 1014      616.108      6155.78
 1015      616.507      6129.82
 1016      616.906      6089.32
 1017      617.305      6040.62
 1018      617.704      5994.38
 1019      618.102      5946.62
 1020      618.501      5897.74
 1021      618.899      5854.62
 1022      619.298      5815.28
 1023      619.696      5771.32
 1024      620.094      5724.08
 1025      620.492      5680.16
 1026       620.89      5639.48
 1027      621.288      5594.72
 1028      621.686       5552.4
 1029      622.083      5519.42
 1030       622.48       5485.9
 1031      622.878      5451.78
 1032      623.275      5422.36
 1033      623.672      5393.68
 1034      624.069      5359.96
 1035      624.466      5326.96
 1036      624.863       5293.9
 1037      625.259      5255.82
 1038      625.656      5213.58
 1039      626.052      5169.92
 1040      626.448      5118.84
 1041      626.844      5065.48
 1042      627.241       5021.9
 1043      627.636      4983.32
 1044      628.032       4947.7
 1045      628.428       4925.3
 1046      628.823      4908.08
 1047      629.219      4883.02
 1048      629.614      4861.14
 1049      630.009      4841.02
 1050      630.404       4811.5
 1051      630.799      4774.06
 1052      631.194       4735.1
 1053      631.589      4691.74
 1054      631.984       4643.6
 1055      632.378       4595.8
 1056      632.772       4552.2
 1057      633.167      4508.98
 1058      633.561      4466.92
 1059      633.955      4428.18
 1060      634.349      4386.36
 1061      634.743         4343
 1062      635.136      4305.14
 1063       635.53      4268.08
 1064      635.923      4228.56
 1065      636.316      4195.68
 1066       636.71       4168.9
 1067      637.103      4142.34
 1068      637.496      4115.06
 1069      637.888      4084.02
 1070      638.281      4044.98
 1071      638.674      3999.72
 1072      639.066      3956.06
 1073      639.459      3915.96
 1074      639.851      3881.18
 1075      640.243      3848.68
 1076      640.635      3811.52
 1077      641.027       3768.6
 1078      641.419       3725.5
 1079       641.81      3686.82
 1080      642.202      3652.92
 1081      642.593       3625.8
 1082      642.984      3598.78
 1083      643.375       3565.1
 1084      643.766      3526.44
 1085      644.157      3490.18
 1086      644.548      3457.94
 1087      644.939       3430.1
 1088      645.329      3404.06
 1089       645.72      3375.84
 1090       646.11      3341.36
 1091        646.5      3302.02
 1092       646.89       3261.7
 1093       647.28      3225.04
 1094       647.67      3191.18
 1095       648.06       3157.8
 1096      648.449      3121.56
 1097      648.839      3081.94
 1098      649.228      3039.84
 1099      649.617      2996.66
 1100      650.007      2954.24
 1101      650.396      2912.86
 1102      650.784      2873.62
 1103      651.173      2836.02
 1104      651.562      2798.54
 1105       651.95      2762.92
 1106      652.339      2730.88
 1107      652.727         2702
 1108      653.115      2678.38
 1109      653.503      2660.32
 1110      653.891       2644.4
 1111      654.279      2629.76
 1112      654.666      2618.08
 1113      655.054      2608.12
 1114      655.441       2599.5
 1115      655.828      2592.34
 1116      656.216      2588.22
 1117      656.603      2586.44
 1118      656.989      2584.44
 1119      657.376      2579.76
 1120      657.763      2572.76
 1121      658.149      2564.28
 1122      658.536      2551.54
 1123      658.922      2535.82
 1124      659.308      2518.82
 1125      659.694      2499.64
 1126       660.08      2478.74
 1127      660.466      2455.44
 1128      660.852      2429.28
 1129      661.237       2402.2
 1130      661.623      2376.22
 1131      662.008       2351.1
 1132      662.393      2328.74
 1133      662.778      2306.08
 1134      663.163      2281.64
 1135      663.548      2258.92
 1136      663.933      2235.94
 1137      664.317      2211.88
 1138      664.702      2189.28
 1139      665.086      2168.76
 1140       665.47       2148.4
 1141      665.854       2128.2
 1142      666.238      2108.04
 1143      666.622      2086.96
 1144      667.006      2065.12
 1145      667.389      2042.62
 1146      667.773      2021.04
 1147      668.156       1999.7
 1148      668.539      1979.38
 1149      668.923      1962.06
 1150      669.305      1945.88
 1151      669.688      1927.92
 1152      670.071      1909.74
 1153      670.454      1891.84
 1154      670.836      1872.14
 1155      671.218      1852.06
 1156      671.601      1834.18
 1157      671.983      1817.02
 1158      672.365      1800.86
 1159      672.747      1785.52
 1160      673.128      1768.84
 1161       673.51       1751.3
 1162      673.891      1735.34
 1163      674.273      1719.96
 1164      674.654      1705.46
 1165      675.035      1692.14
 1166      675.416      1678.44
 1167      675.797      1663.36
 1168      676.177       1647.6
 1169      676.558      1632.76
 1170      676.938       1619.2
 1171      677.319      1605.92
 1172      677.699      1592.66
 1173      678.079       1579.5
 1174      678.459      1565.18
 1175      678.839       1549.2
 1176      679.219       1533.9
 1177      679.598       1520.9
 1178      679.978      1509.76
 1179      680.357      1498.66
 1180      680.736      1487.36
 1181      681.115      1475.44
 1182      681.494      1462.72
 1183      681.873      1449.72
 1184      682.252      1437.08
 1185       682.63      1426.18
 1186      683.009      1416.44
 1187      683.387      1405.22
 1188      683.765      1393.14
 1189      684.143      1381.54
 1190      684.521      1369.82
 1191      684.899      1358.58
 1192      685.277      1348.38
 1193      685.654      1338.72
 1194      686.032      1328.88
 1195      686.409      1318.36
 1196      686.786      1307.14
 1197      687.163      1297.02
 1198       687.54      1287.54
 1199      687.917       1279.2
 1200      688.294       1271.9
 1201       688.67      1264.88
 1202      689.046      1257.28
 1203      689.423      1248.96
 1204      689.799      1240.26
 1205      690.175      1231.66
 1206      690.551       1223.4
 1207      690.927      1215.74
 1208      691.302      1208.08
 1209      691.678      1199.74
 1210      692.053      1191.72
 1211      692.428      1184.42
 1212      692.804      1176.66
 1213      693.179      1168.86
 1214      693.553      1161.14
 1215      693.928      1152.48
 1216      694.303       1143.5
 1217      694.677      1135.14
 1218      695.052      1127.68
 1219      695.426      1120.64
 1220        695.8      1114.24
 1221      696.174      1108.32
 1222      696.548       1101.9
 1223      696.921      1094.14
 1224      697.295      1086.42
 1225      697.669      1079.12
 1226      698.042      1071.48
 1227      698.415       1064.4
 1228      698.788      1058.72
 1229      699.161      1054.06
 1230      699.534      1049.84
 1231      699.907       1044.7
 1232      700.279      1038.38
 1233      700.652      1032.04
 1234      701.024      1025.54
 1235      701.396      1018.94
 1236      701.768       1012.8
 1237       702.14      1006.98
 1238      702.512      1000.96
 1239      702.883       994.64
 1240      703.255       988.26
 1241      703.626       983.18
 1242      703.998          979
 1243      704.369        974.9
 1244       704.74       970.74
 1245      705.111        966.2
 1246      705.481       960.42
 1247      705.852        954.3
 1248      706.222       948.14
 1249      706.593       942.06
 1250      706.963       936.62
 1251      707.333       931.82
 1252      707.703       927.54
 1253      708.073       923.78
 1254      708.442        920.1
 1255      708.812        916.1
 1256      709.181       912.56
 1257      709.551        909.7
 1258       709.92       906.82
 1259      710.289       903.36
 1260      710.658       899.64
 1261      711.027       895.02
 1262      711.395       889.32
 1263      711.764       884.06
 1264      712.132       879.94
 1265        712.5       876.12
 1266      712.869          873
 1267      713.236       870.78
 1268      713.604          868
 1269      713.972       864.48
 1270       714.34       861.24
 1271      714.707       857.94
 1272      715.074       854.38
 1273      715.442        850.8
 1274      715.809       846.66
 1275      716.176       842.48
 1276      716.542       838.76
 1277      716.909       835.66
 1278      717.276        833.7
 1279      717.642       832.56
 1280      718.008       831.18
 1281      718.374       829.16
 1282       718.74        826.5
 1283      719.106       823.18
 1284      719.472       819.38
 1285      719.838       815.98
 1286      720.203       813.66
 1287      720.568       811.32
 1288      720.934       808.42
 1289      721.299       806.16
 1290      721.664       803.88
 1291      722.029       800.86
 1292      722.393       798.22
 1293      722.758       796.14
 1294      723.122       794.18
 1295      723.486        792.2
 1296      723.851       790.14
 1297      724.215        787.3
 1298      724.578       783.82
 1299      724.942       780.72
 1300      725.306       778.18
 1301      725.669       775.74
 1302      726.033        774.1
 1303      726.396       773.24
 1304      726.759       771.84
 1305      727.122       770.06
 1306      727.485       767.86
 1307      727.847       764.88
 1308       728.21       761.62
 1309      728.572       758.58
 1310      728.935       755.54
 1311      729.297       753.42
 1312      729.659       752.54
 1313      730.021       752.06
 1314      730.382       751.38
 1315      730.744       750.58
 1316      731.105        749.3
 1317      731.467       746.86
 1318      731.828       743.92
 1319      732.189       741.46
 1320       732.55       739.26
 1321      732.911       736.92
 1322      733.271       734.44
 1323      733.632       732.24
 1324      733.992        730.7
 1325      734.352       729.52
 1326      734.713        728.7
 1327      735.072       728.42
 1328      735.432       728.06
 1329      735.792        726.7
 1330      736.152       724.92
 1331      736.511       722.86
 1332       736.87       720.38
 1333      737.229       717.58
 1334      737.589       714.86
 1335      737.947       712.54
 1336      738.306        710.7
 1337      738.665       709.44
 1338      739.023       708.88
 1339      739.382       708.62
 1340       739.74       707.84
 1341      740.098       706.58
 1342      740.456        705.1
 1343      740.814        703.2
 1344      741.171       701.48
 1345      741.529       700.36
 1346      741.886       699.76
 1347      742.244       699.32
 1348      742.601       698.84
 1349      742.958       698.32
 1350      743.314       697.68
 1351      743.671       696.56
 1352      744.028       695.32
 1353      744.384       693.96
 1354       744.74       692.44
 1355      745.097       691.28
 1356      745.453       691.08
 1357      745.809        691.2
 1358      746.164        691.5
 1359       746.52       691.72
 1360      746.875       690.62
 1361      747.231        688.6
 1362      747.586       686.98
 1363      747.941       685.66
 1364      748.296       683.72
 1365      748.651       682.64
 1366      749.005       682.54
 1367       749.36       682.98
 1368      749.714       683.44
 1369      750.069       684.26
 1370      750.423       684.68
 1371      750.777       684.36
 1372       751.13       683.78
 1373      751.484       683.48
 1374      751.838       683.14
 1375      752.191       682.82
 1376      752.544       682.22
 1377      752.897       680.64
 1378       753.25       678.58
 1379      753.603       677.28
 1380      753.956       677.08
 1381      754.309        677.4
 1382      754.661        677.8
 1383      755.013       678.56
 1384      755.365        678.6
 1385      755.717        677.7
 1386      756.069       676.96
 1387      756.421       676.76
 1388      756.773       676.62
 1389      757.124       676.62
 1390      757.476       676.78
 1391      757.827       676.72
 1392      758.178       676.84
 1393      758.529          677
 1394      758.879        676.7
 1395       759.23       675.82
 1396      759.581       674.86
 1397      759.931       673.44
 1398      760.281       671.56
 1399      760.631       670.18
 1400      760.981       669.42
 1401      761.331       668.32
 1402      761.681       667.38
 1403       762.03       666.86
 1404      762.379       666.08
 1405      762.729        665.1
 1406      763.078        664.5
 1407      763.427        663.8
 1408      763.776       663.08
 1409      764.124       662.52
 1410      764.473       662.08
 1411      764.821        661.8
 1412      765.169       661.36
 1413      765.517       660.38
 1414      765.865       659.78
 1415      766.213       659.54
 1416      766.561       658.78
 1417      766.909        657.6
 1418      767.256       656.42
 1419      767.603        655.1
 1420       767.95       653.82
 1421      768.297          653
 1422      768.644       652.92
 1423      768.991       653.24
 1424      769.337       653.36
 1425      769.684       653.32
 1426       770.03       653.22
 1427      770.376        652.4
 1428      770.722       651.52
 1429      771.068       651.04
 1430      771.414       650.48
 1431      771.759        650.2
 1432      772.105       650.74
 1433       772.45       650.98
 1434      772.795       650.58
 1435       773.14       650.12
 1436      773.485        649.1
 1437       773.83       647.92
 1438      774.174        647.2
 1439      774.519       646.66
 1440      774.863       646.14
 1441      775.207       645.86
 1442      775.551       645.46
 1443      775.895        645.2
 1444      776.239       645.38
 1445      776.582        645.7
 1446      776.926       645.62
 1447      777.269       645.28
 1448      777.612       644.66
 1449      777.955       643.76
 1450      778.298       642.72
 1451      778.641       642.26
 1452      778.983       641.86
 1453      779.326        641.6
 1454      779.668       641.58
 1455       780.01       641.44
 1456      780.352       641.08
 1457      780.694       640.58
 1458      781.036       639.86
 1459      781.377        639.1
 1460      781.719       638.72
 1461       782.06       639.32
 1462      782.401       640.62
 1463      782.742       641.94
 1464      783.083       643.36
 1465      783.424       643.92
 1466      783.764       642.86
 1467      784.105        641.3
 1468      784.445       639.78
 1469      784.785          638
 1470      785.125       636.94
 1471      785.465       636.72
 1472      785.805       636.48
 1473      786.144        636.3
 1474      786.484       636.34
 1475      786.823       636.34
 1476      787.162        636.4
 1477      787.501       637.14
 1478       787.84       637.76
 1479      788.178       638.16
 1480      788.517        638.4
 1481      788.855       638.26
 1482      789.194       637.74
 1483      789.532       637.06
 1484       789.87       636.34
 1485      790.208       635.78
 1486      790.545       635.68
 1487      790.883        635.7
 1488       791.22       635.72
 1489      791.557       636.22
 1490      791.894       636.98
 1491      792.231       636.94
 1492      792.568       636.42
 1493      792.905       636.84
 1494      793.241        637.3
 1495      793.578       637.26
 1496      793.914       637.54
 1497       794.25        637.4
 1498      794.586          636
 1499      794.922       634.18
 1500      795.257       632.84
 1501      795.593        631.7
 1502      795.928       631.12
 1503      796.263       631.24
 1504      796.598       631.62
 1505      796.933        631.8
 1506      797.268       632.52
 1507      797.603       633.52
 1508      797.937       634.14
 1509      798.271       634.48
 1510      798.606       634.76
 1511       798.94       634.32
 1512      799.274       633.48
 1513      799.607       632.96
 1514      799.941       632.34
 1515      800.274       631.76
 1516      800.608       631.52
 1517      800.941        631.4
 1518      801.274       631.42
 1519      801.607       631.72
 1520      801.939       631.52
 1521      802.272       630.92
 1522      802.604        630.7
 1523      802.936        630.4
 1524      803.269       630.02
 1525      803.601        630.3
 1526      803.932        630.9
 1527      804.264       631.42
 1528      804.596       631.96
 1529      804.927        632.6
 1530      805.258       633.38
 1531      805.589        633.7
 1532       805.92       633.34
 1533      806.251       632.76
 1534      806.582       631.94
 1535      806.912       630.94
 1536      807.242       630.28
 1537      807.573       630.08
 1538      807.903       629.66
 1539      808.232       629.38
 1540      808.562        629.8
 1541      808.892       630.16
 1542      809.221       630.52
 1543      809.551       631.36
 1544       809.88       631.88
 1545      810.209       631.34
 1546      810.538        630.6
 1547      810.866       629.96
 1548      811.195       629.28
 1549      811.523       628.82
 1550      811.851       628.46
 1551       812.18       628.54
 1552      812.507       628.28
 1553      812.835       627.74
 1554      813.163       627.28
 1555       813.49       627.04
 1556      813.818       626.82
 1557      814.145       627.26
 1558      814.472       627.96
 1559      814.799       628.62
 1560      815.126       629.54
 1561      815.452       630.96
 1562      815.779       631.84
 1563      816.105       632.48
 1564      816.431       633.24
 1565      816.757        633.5
 1566      817.083       633.34
 1567      817.409       633.02
 1568      817.734       632.82
 1569       818.06       632.36
 1570      818.385       631.46
 1571       818.71       630.24
 1572      819.035        629.2
 1573       819.36       628.44
 1574      819.685       628.24
 1575      820.009        628.8
 1576      820.333       629.18
 1577      820.658        629.4
 1578      820.982       629.38
 1579      821.305       628.68
 1580      821.629       627.64
 1581      821.953       627.28
 1582      822.276       627.52
 1583        822.6       627.88
 1584      822.923       628.78
 1585      823.246        630.2
 1586      823.569       631.18
 1587      823.891       631.32
 1588      824.214       631.04
 1589      824.536       630.48
 1590      824.858       629.92
 1591       825.18       629.84
 1592      825.502       630.52
 1593      825.824       631.16
 1594      826.146       631.38
 1595      826.467        631.2
 1596      826.789       630.98
 1597       827.11       630.38
 1598      827.431        629.6
 1599      827.752       629.78
 1600      828.072       629.94
 1601      828.393       629.34
 1602      828.713       628.54
 1603      829.034       628.68
 1604      829.354          628
 1605      829.674       627.04
 1606      829.993       626.44
 1607      830.313        626.5
 1608      830.633       626.14
 1609      830.952          626
 1610      831.271        625.9
 1611       831.59       625.62
 1612      831.909        625.5
 1613      832.228        626.2
 1614      832.546       626.72
 1615      832.865        627.6
 1616      833.183       629.06
 1617      833.501       629.74
 1618      833.819        629.3
 1619      834.137       629.02
 1620      834.455       628.68
 1621      834.772       628.04
 1622      835.089       627.36
 1623      835.407       627.06
 1624      835.724       627.38
 1625       836.04       628.06
 1626      836.357       628.54
 1627      836.674        629.6
 1628       836.99        630.9
 1629      837.306       631.26
 1630      837.623       631.24
 1631      837.939       631.62
 1632      838.254       631.82
 1633       838.57       631.34
 1634      838.886       631.28
 1635      839.201       631.24
 1636      839.516       630.36
 1637      839.831       629.14
 1638      840.146       628.26
 1639      840.461       627.42
 1640      840.775        626.9
 1641       841.09       627.08
 1642      841.404       627.58
 1643      841.718       628.46
 1644      842.032       629.32
 1645      842.346       629.62
 1646      842.659       629.84
 1647      842.973       630.16
 1648      843.286        629.8
 1649      843.599       628.94
 1650      843.912       628.22
 1651      844.225       627.46
 1652      844.538       626.58
 1653      844.851       626.08
 1654      845.163       626.44
 1655      845.475       627.28
 1656      845.787       628.36
 1657      846.099       629.32
 1658      846.411       629.66
 1659      846.723       629.52
 1660      847.034       629.54
 1661      847.345        629.4
 1662      847.657        628.9
 1663      847.968       628.74
 1664      848.278       628.86
 1665      848.589       628.34
 1666        848.9       627.88
 1667       849.21       627.92
 1668       849.52       627.96
 1669       849.83       627.78
 1670       850.14       627.14
 1671       850.45       625.98
 1672      850.759       624.82
 1673      851.069       624.14
 1674      851.378       624.18
 1675      851.687       624.76
 1676      851.996        625.5
 1677      852.305       626.46
 1678      852.614       627.12
 1679      852.922       626.74
 1680       853.23       626.54
 1681      853.539       627.08
 1682      853.847       627.16
 1683      854.154       627.06
 1684      854.462       627.38
 1685       854.77       627.42
 1686      855.077        626.7
 1687      855.384       626.14
 1688      855.691       625.54
 1689      855.998       624.94
 1690      856.305       625.14
 1691      856.612       625.84
 1692      856.918       626.52
 1693      857.224       627.42
 1694       857.53       628.04
 1695      857.836       628.12
 1696      858.142       628.26
 1697      858.448       628.36
 1698      858.753       628.18
 1699      859.059          628
 1700      859.364       627.44
 1701      859.669        626.8
 1702      859.974        626.6
 1703      860.278        626.6
 1704      860.583       627.28
 1705      860.887       628.32
 1706      861.192       628.78
 1707      861.496       628.92
 1708        861.8       629.36
 1709      862.103       628.82
 1710      862.407       627.76
 1711       862.71       627.16
 1712      863.014       626.64
 1713      863.317       626.26
 1714       863.62       626.24
 1715      863.922       626.38
 1716      864.225       626.58
 1717      864.527       626.92
 1718       864.83       626.82
 1719      865.132        626.7
 1720      865.434       626.92
 1721      865.736        627.4
 1722      866.037       627.48
 1723      866.339       627.36
 1724       866.64        627.6
 1725      866.941       627.74
 1726      867.242       627.06
 1727      867.543        626.2
 1728      867.844       626.04
 1729      868.145       626.38
 1730      868.445       627.26
 1731      868.745       628.48
 1732      869.045       629.38
 1733      869.345       629.78
 1734      869.645       629.12
 1735      869.944       627.92
 1736      870.244       627.04
 1737      870.543       627.18
 1738      870.842       627.34
 1739      871.141       627.38
 1740       871.44       627.08
 1741      871.739       626.86
 1742      872.037       626.74
 1743      872.335       626.58
 1744      872.634       627.04
 1745      872.931       627.72
 1746      873.229       627.78
 1747      873.527       627.36
 1748      873.824       626.62
 1749      874.122       626.06
 1750      874.419       626.02
 1751      874.716       625.78
 1752      875.013       625.54
 1753      875.309       625.84
 1754      875.606       625.84
 1755      875.902       625.66
 1756      876.199       626.34
 1757      876.495       627.04
 1758       876.79       627.32
 1759      877.086       627.34
 1760      877.382       626.88
 1761      877.677        625.8
 1762      877.972       624.72
 1763      878.267       624.18
 1764      878.562       624.26
 1765      878.857        624.7
 1766      879.152       625.14
 1767      879.446       625.72
 1768       879.74       626.44
 1769      880.034       626.88
 1770      880.328       627.08
 1771      880.622        627.2
 1772      880.916       627.26
 1773      881.209          627
 1774      881.502       626.64
 1775      881.795        626.4
 1776      882.088       625.78
 1777      882.381       625.08
 1778      882.674        624.7
 1779      882.966       624.72
 1780      883.258       624.76
 1781      883.551       625.38
 1782      883.843       626.24
 1783      884.134       626.62
 1784      884.426       626.48
 1785      884.717       626.44
 1786      885.009       626.48
 1787        885.3       626.32
 1788      885.591       626.38
 1789      885.882       626.26
 1790      886.172       625.76
 1791      886.463        625.3
 1792      886.753       625.26
 1793      887.043       625.24
 1794      887.333       625.62
 1795      887.623       626.02
 1796      887.913       626.38
 1797      888.202       626.38
 1798      888.492        625.9
 1799      888.781        625.6
 1800       889.07       625.94
 1801      889.359        626.4
 1802      889.647        626.8
 1803      889.936        627.3
 1804      890.224       627.66
 1805      890.512       628.16
 1806        890.8          629
 1807      891.088       629.36
 1808      891.376       629.58
 1809      891.663        629.3
 1810      891.951       628.56
 1811      892.238       627.72
 1812      892.525       627.18
 1813      892.812       626.78
 1814      893.099       626.78
 1815      893.385       626.74
 1816      893.671       626.66
 1817      893.958       626.74
 1818      894.244       626.94
 1819       894.53       627.16
 1820      894.815        627.7
 1821      895.101        627.8
 1822      895.386       627.44
 1823      895.671          627
 1824      895.956       626.48
 1825      896.241        625.7
 1826      896.526       625.16
 1827       896.81       625.34
 1828      897.095       625.88
 1829      897.379       625.94
 1830      897.663       625.94
 1831      897.947       626.22
 1832      898.231       626.04
 1833      898.514       625.52
 1834      898.798       625.38
 1835      899.081       625.34
 1836      899.364        624.8
 1837      899.647        624.5
 1838      899.929       624.58
 1839      900.212        625.1
 1840      900.494        625.9
 1841      900.776       626.92
 1842      901.058       627.58
 1843       901.34        627.5
 1844      901.622       626.96
 1845      901.904          626
 1846      902.185       624.92
 1847      902.466        623.9
 1848      902.747       623.02
 1849      903.028       621.92
 1850      903.309       620.74
 1851      903.589       620.02
 1852       903.87       620.62
 1853       904.15       621.92
 1854       904.43       623.46
 1855       904.71       625.18
 1856      904.989       626.76
 1857      905.269       627.52
 1858      905.548       627.34
 1859      905.827       626.76
 1860      906.106       625.98
 1861      906.385       624.92
 1862      906.664       623.62
 1863      906.942          623
 1864      907.221       623.06
 1865      907.499       623.12
 1866      907.777        623.2
 1867      908.055       623.08
 1868      908.332       622.96
 1869       908.61       622.62
 1870      908.887       622.26
 1871      909.164       622.46
 1872      909.441        623.4
 1873      909.718       624.14
 1874      909.995       624.64
 1875      910.271       625.04
 1876      910.548       624.76
 1877      910.824       623.98
 1878        911.1       623.24
 1879      911.375        622.7
 1880      911.651       622.64
 1881      911.927       622.92
 1882      912.202       623.14
 1883      912.477       623.84
 1884      912.752       625.24
 1885      913.027       626.36
 1886      913.301       626.92
 1887      913.576        627.3
 1888       913.85        627.1
 1889      914.124        626.2
 1890      914.398       625.42
 1891      914.672       625.34
 1892      914.945       625.46
 1893      915.219       625.52
 1894      915.492        625.8
 1895      915.765       625.98
 1896      916.038       625.88
 1897      916.311       625.64
 1898      916.583        625.4
 1899      916.856       625.08
 1900      917.128        625.2
 1901        917.4       625.66
 1902      917.672        626.3
 1903      917.944       626.96
 1904      918.215       627.28
 1905      918.486       627.32
 1906      918.758        626.7
 1907      919.029       625.74
 1908      919.299       625.56
 1909       919.57       625.54
 1910      919.841       624.78
 1911      920.111        623.8
 1912      920.381        623.5
 1913      920.651       623.08
 1914      920.921        622.8
 1915      921.191       623.36
 1916       921.46       624.28
 1917      921.729       624.66
 1918      921.999       624.66
 1919      922.268       624.38
 1920      922.536        623.8
 1921      922.805       623.32
 1922      923.073       623.08
 1923      923.342       623.38
 1924       923.61       623.54
 1925      923.878       623.12
 1926      924.145       622.98
 1927      924.413        622.9
 1928       924.68       622.14
 1929      924.948       621.86
 1930      925.215       622.32
 1931      925.482       622.78
 1932      925.748       623.18
 1933      926.015       624.28
 1934      926.281       625.62
 1935      926.547       626.44
 1936      926.813        626.9
 1937      927.079       627.12
 1938      927.345        626.4
 1939       927.61        625.5
 1940      927.876       625.02
 1941      928.141        624.7
 1942      928.406       624.86
 1943      928.671       625.86
 1944      928.935       627.22
 1945        929.2        628.2
 1946      929.464       628.52
 1947      929.728       627.78
 1948      929.992       626.58
 1949      930.256       625.14
 1950       930.52       623.58
 1951      930.783       622.54
 1952      931.046        622.5
 1953      931.309       621.96
 1954      931.572       621.16
 1955      931.835       621.34
 1956      932.097       621.68
 1957       932.36       621.84
 1958      932.622        622.2
 1959      932.884       622.26
 1960      933.146       621.88
 1961      933.408       621.36
 1962      933.669       620.64
 1963       933.93       620.48
 1964      934.192       620.46
 1965      934.453       620.66
 1966      934.713       621.54
 1967      934.974       622.62
 1968      935.234       623.26
 1969      935.495        624.3
 1970      935.755        625.1
 1971      936.015        625.3
 1972      936.274       625.38
 1973      936.534       625.56
 1974      936.793       625.68
 1975      937.053          626
 1976      937.312       626.24
 1977      937.571       626.32
 1978      937.829       626.26
 1979      938.088       626.06
 1980      938.346       625.38
 1981      938.604       624.46
 1982      938.862       624.02
 1983       939.12       623.44
 1984      939.378        622.6
 1985      939.635       622.26
 1986      939.893       622.66
 1987       940.15       622.64
 1988      940.407       622.72
 1989      940.663       623.16
 1990       940.92       623.42
 1991      941.176        623.1
 1992      941.433       623.48
 1993      941.689          625
 1994      941.944       626.28
 1995        942.2       626.54
 1996      942.456        626.9
 1997      942.711       626.92
 1998      942.966       625.64
 1999      943.221        624.4
 2000      943.476        624.5
 2001      943.731       625.28
 2002      943.985        626.2
 2003      944.239       626.54
 2004      944.493       625.98
 2005      944.747       625.24
 2006      945.001        624.2
 2007      945.255       622.54
 2008      945.508       621.96
 2009      945.761       622.44
 2010      946.014       622.78
 2011      946.267       622.74
 2012       946.52       622.68
 2013      946.772       622.62
 2014      947.025       622.88
 2015      947.277       622.78
 2016      947.529       622.66
 2017      947.781       622.58
 2018      948.032       622.18
 2019      948.284       621.92
 2020      948.535          622
 2021      948.786       622.08
 2022      949.037        622.7
 2023      949.288       623.22
 2024      949.538       622.98
 2025      949.789       622.48
 2026      950.039       622.04
 2027      950.289       621.24
 2028      950.539       620.88
 2029      950.788          621
 2030      951.038       621.54
 2031      951.287       622.46
 2032      951.536       623.38
 2033      951.785       624.08
 2034      952.034       624.54
 2035      952.282       624.54
 2036      952.531       624.16
 2037      952.779       623.84
 2038      953.027       623.82
 2039      953.275        624.5
 2040      953.523       625.46
 2041       953.77       625.66
 2042      954.017        625.8
 2043      954.264       625.86
 2044      954.511       625.18
 2045      954.758       624.92
 2046      955.005      625.025
 2047      955.251      625.333
