scansci Spectrometer Data File
--- Measurement Setting ---
Type: Sample Spectrum
Date: Mon Oct 16 16:46:10 2023
User: (Reserved by scansci)
Serial: (Reserved by scansci)
Channel: No. 11
Integration Time: 1
Average: 10
Boxcar: 2
Electrical Dark: No-corrected
Time Normalize: (Reserved by scansci)
Dual-beam: (Reserved by scansci)
Reference Ch: (Reserved by scansci)
--- Measurement Data ---
Pixel   Wavelength   Intensity
    0        162.5      580.367
    1      162.985       580.45
    2      163.469       580.62
    3      163.954       580.96
    4      164.439       580.64
    5      164.923        580.7
    6      165.408       580.98
    7      165.892       580.82
    8      166.377       580.58
    9      166.861       580.78
   10      167.345       580.68
   11       167.83        579.7
   12      168.314       578.68
   13      168.798       577.82
   14      169.282       577.06
   15      169.766        576.7
   16       170.25        577.3
   17      170.734       578.02
   18      171.218       578.58
   19      171.702       579.04
   20      172.185       579.32
   21      172.669       579.36
   22      173.153        579.3
   23      173.636       579.54
   24       174.12        579.9
   25      174.603       579.64
   26      175.087          579
   27       175.57       578.58
   28      176.053       577.86
   29      176.537       576.66
   30       177.02       576.34
   31      177.503       576.62
   32      177.986       576.72
   33      178.469       576.54
   34      178.952          577
   35      179.435       577.78
   36      179.918       578.12
   37      180.401       578.56
   38      180.884       579.76
   39      181.366       580.86
   40      181.849       580.74
   41      182.332       580.36
   42      182.814       580.06
   43      183.297       579.46
   44      183.779       578.36
   45      184.262       577.64
   46      184.744       577.82
   47      185.226       578.52
   48      185.708       579.28
   49      186.191       580.26
   50      186.673       581.08
   51      187.155       581.88
   52      187.637        582.3
   53      188.119       582.14
   54        188.6       581.32
   55      189.082       580.52
   56      189.564       579.46
   57      190.046       578.38
   58      190.527       577.76
   59      191.009       577.84
   60      191.491       578.16
   61      191.972       578.52
   62      192.454       579.16
   63      192.935       580.06
   64      193.416       581.12
   65      193.897       582.06
   66      194.379       582.54
   67       194.86       582.24
   68      195.341       581.62
   69      195.822       580.98
   70      196.303       579.96
   71      196.784       578.92
   72      197.265       578.42
   73      197.746       577.64
   74      198.226       576.78
   75      198.707       576.78
   76      199.188       577.32
   77      199.668        578.1
   78      200.149        579.2
   79      200.629       579.88
   80       201.11       580.28
   81       201.59        580.5
   82       202.07       580.62
   83       202.55       580.68
   84      203.031       580.36
   85      203.511       579.94
   86      203.991       579.86
   87      204.471       579.62
   88      204.951          579
   89      205.431       578.72
   90       205.91       578.42
   91       206.39       577.94
   92       206.87       577.72
   93      207.349       578.22
   94      207.829       578.92
   95      208.309        579.6
   96      208.788       580.48
   97      209.267       581.18
   98      209.747        581.6
   99      210.226       581.46
  100      210.705       581.28
  101      211.185       580.68
  102      211.664        579.6
  103      212.143       578.86
  104      212.622          579
  105      213.101       578.86
  106      213.579       578.86
  107      214.058        579.4
  108      214.537        579.2
  109      215.016        578.8
  110      215.494       579.26
  111      215.973        580.1
  112      216.452        581.2
  113       216.93       582.64
  114      217.408        583.6
  115      217.887       583.84
  116      218.365       583.66
  117      218.843       583.12
  118      219.321        582.7
  119      219.799       582.48
  120      220.278       582.32
  121      220.755       581.88
  122      221.233       581.22
  123      221.711       580.42
  124      222.189       579.68
  125      222.667        579.3
  126      223.144       579.66
  127      223.622       580.28
  128        224.1        580.7
  129      224.577       581.32
  130      225.055       581.86
  131      225.532       581.88
  132      226.009       581.94
  133      226.486       582.18
  134      226.964       582.14
  135      227.441       581.22
  136      227.918          580
  137      228.395       578.92
  138      228.872       578.44
  139      229.349       578.32
  140      229.826       578.76
  141      230.302       579.36
  142      230.779       579.82
  143      231.256       580.06
  144      231.732       580.58
  145      232.209       581.28
  146      232.685       581.36
  147      233.162        581.2
  148      233.638       581.56
  149      234.114       581.68
  150       234.59       581.38
  151      235.066       581.58
  152      235.543        581.9
  153      236.019        581.5
  154      236.495       581.74
  155       236.97       582.32
  156      237.446       583.14
  157      237.922        584.2
  158      238.398       585.66
  159      238.873          586
  160      239.349       585.86
  161      239.824       585.34
  162        240.3       584.02
  163      240.775        582.2
  164      241.251        580.5
  165      241.726       579.76
  166      242.201        579.7
  167      242.676       579.74
  168      243.151       579.54
  169      243.626       579.88
  170      244.101        580.4
  171      244.576       580.86
  172      245.051       581.86
  173      245.526       583.16
  174          246       584.08
  175      246.475        584.2
  176       246.95       584.26
  177      247.424       584.46
  178      247.899       584.82
  179      248.373       585.58
  180      248.847       586.54
  181      249.321          587
  182      249.796       586.76
  183       250.27       586.18
  184      250.744       585.04
  185      251.218       583.82
  186      251.692       582.94
  187      252.166       582.54
  188      252.639       582.38
  189      253.113        582.5
  190      253.587       582.92
  191       254.06       583.46
  192      254.534       583.82
  193      255.007       583.98
  194      255.481          584
  195      255.954       583.98
  196      256.427       583.76
  197      256.901          583
  198      257.374       582.32
  199      257.847       582.04
  200       258.32        582.3
  201      258.793       582.96
  202      259.266          584
  203      259.739       584.88
  204      260.211       585.56
  205      260.684       585.72
  206      261.157       585.72
  207      261.629       585.86
  208      262.102       586.16
  209      262.574       586.82
  210      263.046        587.1
  211      263.519       586.92
  212      263.991       586.56
  213      264.463       586.26
  214      264.935       585.72
  215      265.407       585.18
  216      265.879       584.58
  217      266.351       584.48
  218      266.823       584.88
  219      267.295       585.28
  220      267.766       585.86
  221      268.238       586.36
  222       268.71       586.48
  223      269.181       585.86
  224      269.653       584.82
  225      270.124       584.14
  226      270.595        584.3
  227      271.066       584.72
  228      271.538       584.64
  229      272.009       584.68
  230       272.48       584.36
  231      272.951       583.32
  232      273.422       582.22
  233      273.892       582.06
  234      274.363       582.28
  235      274.834        582.7
  236      275.305        583.6
  237      275.775        584.5
  238      276.246       584.92
  239      276.716       585.16
  240      277.186       585.56
  241      277.657       585.64
  242      278.127       585.78
  243      278.597       586.64
  244      279.067       587.52
  245      279.537       587.92
  246      280.007       588.16
  247      280.477       588.24
  248      280.947        587.4
  249      281.417       586.12
  250      281.886       585.66
  251      282.356       585.88
  252      282.825       585.48
  253      283.295        585.2
  254      283.764       585.84
  255      284.234       585.88
  256      284.703       585.28
  257      285.172       585.22
  258      285.641        585.4
  259       286.11       585.44
  260      286.579       585.22
  261      287.048       584.84
  262      287.517       584.78
  263      287.986       584.76
  264      288.454       584.18
  265      288.923       584.02
  266      289.392        584.5
  267       289.86       584.78
  268      290.329       585.08
  269      290.797       585.78
  270      291.265       586.52
  271      291.734       586.36
  272      292.202       586.08
  273       292.67       586.22
  274      293.138        585.9
  275      293.606       584.94
  276      294.074       584.66
  277      294.541       584.44
  278      295.009        583.7
  279      295.477       583.28
  280      295.944       583.06
  281      296.412       582.64
  282      296.879       582.14
  283      297.347       581.94
  284      297.814       581.44
  285      298.281       581.16
  286      298.749       580.84
  287      299.216       580.56
  288      299.683        580.2
  289       300.15       580.08
  290      300.616       579.92
  291      301.083       580.24
  292       301.55       581.72
  293      302.017        583.1
  294      302.483       583.64
  295       302.95        583.6
  296      303.416       583.22
  297      303.883       582.24
  298      304.349       581.44
  299      304.815       581.48
  300      305.281       582.24
  301      305.748       582.92
  302      306.214       583.28
  303       306.68       583.62
  304      307.146          584
  305      307.611       584.24
  306      308.077        584.1
  307      308.543       583.56
  308      309.008       583.08
  309      309.474       582.62
  310      309.939       582.12
  311      310.405       581.82
  312       310.87       581.74
  313      311.335       581.16
  314        311.8        580.2
  315      312.266       579.22
  316      312.731       578.78
  317      313.196       578.56
  318       313.66        578.9
  319      314.125       579.72
  320       314.59       580.12
  321      315.055       580.02
  322      315.519       579.86
  323      315.984       579.24
  324      316.448       578.36
  325      316.913       578.04
  326      317.377       578.14
  327      317.841       578.64
  328      318.305       579.52
  329      318.769        580.1
  330      319.233       580.16
  331      319.697       580.14
  332      320.161       579.82
  333      320.625       579.58
  334      321.089       579.68
  335      321.552        580.5
  336      322.016       581.64
  337      322.479       582.02
  338      322.943       581.48
  339      323.406       580.84
  340      323.869       580.14
  341      324.333        579.2
  342      324.796       579.04
  343      325.259       579.16
  344      325.722        578.7
  345      326.185       577.66
  346      326.647       576.22
  347       327.11        574.6
  348      327.573          574
  349      328.035       574.62
  350      328.498       575.84
  351       328.96       577.24
  352      329.423       578.78
  353      329.885       579.66
  354      330.347       580.12
  355       330.81       580.48
  356      331.272       580.98
  357      331.734        581.5
  358      332.196       581.58
  359      332.657       581.04
  360      333.119       580.88
  361      333.581       580.62
  362      334.043       579.68
  363      334.504        579.5
  364      334.966        579.7
  365      335.427       578.84
  366      335.888       578.04
  367       336.35       578.16
  368      336.811       577.92
  369      337.272        577.5
  370      337.733       577.46
  371      338.194       577.54
  372      338.655       577.38
  373      339.115       577.52
  374      339.576       577.78
  375      340.037       578.16
  376      340.497       578.66
  377      340.958       578.96
  378      341.418       578.76
  379      341.879       578.58
  380      342.339       578.64
  381      342.799       578.46
  382      343.259       577.98
  383      343.719       577.58
  384      344.179       577.38
  385      344.639       576.82
  386      345.099          576
  387      345.559       575.66
  388      346.018        575.4
  389      346.478       575.26
  390      346.937       575.48
  391      347.397        575.8
  392      347.856        575.9
  393      348.315       576.06
  394      348.774       576.12
  395      349.234       576.16
  396      349.693       576.58
  397      350.152          577
  398       350.61       577.04
  399      351.069        576.8
  400      351.528        576.2
  401      351.987       575.22
  402      352.445       574.28
  403      352.904       573.58
  404      353.362        573.2
  405       353.82       573.64
  406      354.279       574.12
  407      354.737       574.34
  408      355.195       574.58
  409      355.653       574.58
  410      356.111       573.96
  411      356.569       573.48
  412      357.027       573.32
  413      357.484       573.42
  414      357.942       573.98
  415      358.399       575.14
  416      358.857        576.8
  417      359.314       578.24
  418      359.772       578.86
  419      360.229       578.84
  420      360.686       577.94
  421      361.143       576.36
  422        361.6       574.84
  423      362.057       574.22
  424      362.514       574.24
  425      362.971       574.66
  426      363.427       574.98
  427      363.884        575.4
  428       364.34       575.74
  429      364.797       575.76
  430      365.253        575.7
  431      365.709       575.64
  432      366.166       575.56
  433      366.622       575.48
  434      367.078       575.28
  435      367.534       574.94
  436       367.99        574.5
  437      368.445        574.2
  438      368.901       574.62
  439      369.357        575.2
  440      369.812       575.62
  441      370.268       576.66
  442      370.723       577.52
  443      371.179       577.28
  444      371.634       577.04
  445      372.089       577.08
  446      372.544       576.88
  447      372.999       576.88
  448      373.454       577.14
  449      373.909       576.96
  450      374.364        576.5
  451      374.818       576.28
  452      375.273       576.58
  453      375.727       576.44
  454      376.182       576.28
  455      376.636       576.54
  456       377.09       576.38
  457      377.545       575.48
  458      377.999       575.04
  459      378.453       575.12
  460      378.907        575.2
  461      379.361       575.64
  462      379.814       576.38
  463      380.268       576.92
  464      380.722       576.88
  465      381.175        575.9
  466      381.629       574.46
  467      382.082       573.36
  468      382.535       573.02
  469      382.989       573.66
  470      383.442       575.52
  471      383.895       577.54
  472      384.348       578.76
  473      384.801        579.6
  474      385.253       579.64
  475      385.706        579.1
  476      386.159       579.34
  477      386.611        580.2
  478      387.064       580.58
  479      387.516        580.9
  480      387.968       581.34
  481      388.421       581.14
  482      388.873        580.4
  483      389.325       580.16
  484      389.777       580.08
  485      390.229       579.54
  486      390.681       578.82
  487      391.132        577.9
  488      391.584        576.9
  489      392.035        576.7
  490      392.487       577.22
  491      392.938       578.36
  492       393.39       579.92
  493      393.841       581.02
  494      394.292        581.1
  495      394.743        580.7
  496      395.194       578.96
  497      395.645       576.98
  498      396.096        575.2
  499      396.546       573.62
  500      396.997       572.44
  501      397.448       572.68
  502      397.898        573.5
  503      398.349       574.12
  504      398.799        574.9
  505      399.249       575.36
  506      399.699        575.7
  507      400.149       575.86
  508      400.599       575.82
  509      401.049        575.4
  510      401.499        575.4
  511      401.949       575.22
  512      402.398          575
  513      402.848       575.36
  514      403.297       576.14
  515      403.747       576.94
  516      404.196       577.28
  517      404.645       577.52
  518      405.094        578.1
  519      405.543       579.12
  520      405.992       580.02
  521      406.441        580.9
  522       406.89        581.6
  523      407.339        581.6
  524      407.787       581.34
  525      408.236       581.04
  526      408.684        581.1
  527      409.132       581.28
  528      409.581       581.42
  529      410.029       581.32
  530      410.477       581.22
  531      410.925       580.88
  532      411.373       580.56
  533      411.821       580.68
  534      412.269          581
  535      412.716       581.16
  536      413.164       581.38
  537      413.611       581.52
  538      414.059       581.98
  539      414.506       582.38
  540      414.953       582.56
  541        415.4       582.52
  542      415.847        582.7
  543      416.294       582.64
  544      416.741        582.3
  545      417.188       582.48
  546      417.635       583.08
  547      418.081        583.9
  548      418.528       584.86
  549      418.974       585.68
  550      419.421       585.82
  551      419.867        585.5
  552      420.313       585.26
  553      420.759       585.68
  554      421.205       586.88
  555      421.651       587.94
  556      422.097       588.58
  557      422.543       588.98
  558      422.989       588.98
  559      423.434       588.56
  560       423.88       588.92
  561      424.325       590.16
  562       424.77       591.34
  563      425.216       592.68
  564      425.661       593.92
  565      426.106       594.54
  566      426.551       595.22
  567      426.996       596.06
  568       427.44        596.3
  569      427.885       596.46
  570       428.33       596.52
  571      428.774       596.84
  572      429.219       597.36
  573      429.663       597.62
  574      430.107       598.28
  575      430.551       600.02
  576      430.996       601.96
  577       431.44       604.18
  578      431.883       607.32
  579      432.327        610.8
  580      432.771       614.26
  581      433.215       617.66
  582      433.658        621.6
  583      434.102       626.52
  584      434.545       631.52
  585      434.988       636.26
  586      435.431       641.08
  587      435.875        645.6
  588      436.318       649.82
  589      436.761       654.78
  590      437.203          660
  591      437.646       664.48
  592      438.089       668.16
  593      438.531       671.14
  594      438.974       674.04
  595      439.416       677.26
  596      439.859       680.48
  597      440.301       683.62
  598      440.743       686.44
  599      441.185       688.12
  600      441.627       690.06
  601      442.069       692.74
  602       442.51       694.54
  603      442.952       695.06
  604      443.394       695.46
  605      443.835       694.98
  606      444.277       693.78
  607      444.718       693.34
  608      445.159       693.94
  609        445.6       694.82
  610      446.041       696.14
  611      446.482       698.28
  612      446.923       702.04
  613      447.364       708.14
  614      447.804       716.52
  615      448.245       727.06
  616      448.685        739.8
  617      449.126        753.9
  618      449.566       768.28
  619      450.006       783.28
  620      450.447       798.98
  621      450.887       814.94
  622      451.326       830.68
  623      451.766       846.44
  624      452.206       861.44
  625      452.646       874.92
  626      453.085       887.94
  627      453.525       901.96
  628      453.964        916.2
  629      454.403       928.96
  630      454.843       940.28
  631      455.282       949.76
  632      455.721       956.62
  633       456.16       961.26
  634      456.599       964.68
  635      457.037       967.36
  636      457.476       969.18
  637      457.915       969.18
  638      458.353       966.68
  639      458.791        962.6
  640       459.23          957
  641      459.668       949.58
  642      460.106       941.68
  643      460.544       934.56
  644      460.982       927.78
  645       461.42       921.08
  646      461.857       914.52
  647      462.295       907.88
  648      462.733        901.4
  649       463.17       895.22
  650      463.607       889.94
  651      464.045       886.08
  652      464.482       883.64
  653      464.919       882.58
  654      465.356       882.46
  655      465.793       883.28
  656       466.23       884.94
  657      466.666        886.9
  658      467.103       889.38
  659      467.539        892.4
  660      467.976       894.98
  661      468.412       896.62
  662      468.848        897.3
  663      469.284       897.24
  664       469.72       896.26
  665      470.156       894.58
  666      470.592       893.24
  667      471.028       892.06
  668      471.464        889.6
  669      471.899       886.98
  670      472.335       884.52
  671       472.77       881.12
  672      473.205       877.18
  673      473.641       873.42
  674      474.076        870.5
  675      474.511        867.9
  676      474.946        865.8
  677       475.38       863.94
  678      475.815        861.6
  679       476.25       858.32
  680      476.684       855.36
  681      477.119       852.24
  682      477.553       849.22
  683      477.987       847.04
  684      478.421       844.82
  685      478.856       842.02
  686      479.289       839.54
  687      479.723       836.94
  688      480.157        833.8
  689      480.591       831.58
  690      481.024       829.82
  691      481.458        828.4
  692      481.891       828.22
  693      482.324       828.72
  694      482.758        828.9
  695      483.191       829.34
  696      483.624       829.74
  697      484.057       829.38
  698      484.489       829.08
  699      484.922       829.64
  700      485.355        830.7
  701      485.787       831.94
  702       486.22        833.7
  703      486.652       835.86
  704      487.084        837.5
  705      487.516        839.1
  706      487.948       841.42
  707       488.38       844.74
  708      488.812       848.56
  709      489.244       851.74
  710      489.676       854.32
  711      490.107       856.58
  712      490.539       858.34
  713       490.97       860.12
  714      491.401       863.42
  715      491.832       867.54
  716      492.263       871.96
  717      492.694       875.46
  718      493.125       878.24
  719      493.556       880.28
  720      493.987       881.58
  721      494.417       883.06
  722      494.848        885.2
  723      495.278       887.64
  724      495.708       891.42
  725      496.139       896.26
  726      496.569       899.88
  727      496.999       903.58
  728      497.429        907.8
  729      497.858          911
  730      498.288       913.46
  731      498.718          917
  732      499.147       920.64
  733      499.577       924.48
  734      500.006       928.84
  735      500.435       933.04
  736      500.864       936.38
  737      501.293       939.44
  738      501.722       941.64
  739      502.151       943.16
  740       502.58       945.04
  741      503.008       947.14
  742      503.437        949.6
  743      503.865       952.28
  744      504.293       954.66
  745      504.722       956.56
  746       505.15       959.04
  747      505.578       961.66
  748      506.006        963.6
  749      506.434       966.02
  750      506.861        969.1
  751      507.289       971.52
  752      507.716       973.38
  753      508.144       976.12
  754      508.571       979.44
  755      508.998       982.84
  756      509.425       986.54
  757      509.852       990.66
  758      510.279       994.06
  759      510.706       995.94
  760      511.133       997.58
  761       511.56       998.84
  762      511.986       999.92
  763      512.412      1002.06
  764      512.839      1003.64
  765      513.265      1004.16
  766      513.691      1005.62
  767      514.117      1007.18
  768      514.543      1008.06
  769      514.969      1010.32
  770      515.395       1013.5
  771       515.82       1015.9
  772      516.246      1017.74
  773      516.671       1019.1
  774      517.096      1020.08
  775      517.522       1020.9
  776      517.947      1021.64
  777      518.372      1022.54
  778      518.797         1024
  779      519.222      1026.04
  780      519.646      1028.12
  781      520.071      1030.78
  782      520.495      1034.42
  783       520.92      1037.98
  784      521.344       1040.8
  785      521.768         1043
  786      522.192      1043.96
  787      522.616         1044
  788       523.04      1044.14
  789      523.464      1044.84
  790      523.888      1046.24
  791      524.311      1048.56
  792      524.735      1051.52
  793      525.158      1054.86
  794      525.581      1058.52
  795      526.005      1062.02
  796      526.428      1065.48
  797      526.851      1068.36
  798      527.274      1070.18
  799      527.696      1071.02
  800      528.119      1071.04
  801      528.542         1070
  802      528.964      1068.56
  803      529.386      1068.08
  804      529.809      1068.08
  805      530.231      1069.08
  806      530.653      1071.32
  807      531.075       1073.5
  808      531.497      1075.56
  809      531.918      1077.96
  810       532.34       1079.8
  811      532.761      1080.14
  812      533.183       1079.8
  813      533.604      1078.94
  814      534.025      1078.64
  815      534.447       1079.6
  816      534.868      1081.94
  817      535.289      1085.68
  818      535.709      1089.84
  819       536.13      1092.82
  820      536.551       1094.3
  821      536.971      1094.56
  822      537.392      1093.72
  823      537.812      1093.04
  824      538.232      1093.68
  825      538.652      1094.98
  826      539.072      1096.94
  827      539.492      1099.76
  828      539.912      1100.68
  829      540.331      1099.74
  830      540.751      1098.92
  831       541.17      1098.38
  832       541.59      1097.62
  833      542.009       1098.1
  834      542.428      1099.26
  835      542.847       1099.9
  836      543.266      1099.98
  837      543.685      1099.56
  838      544.104      1099.02
  839      544.522       1099.2
  840      544.941      1100.74
  841      545.359       1102.4
  842      545.778      1104.48
  843      546.196      1107.36
  844      546.614      1110.12
  845      547.032      1112.08
  846       547.45      1113.86
  847      547.867      1114.64
  848      548.285      1115.24
  849      548.703      1116.58
  850       549.12      1117.64
  851      549.538      1119.58
  852      549.955      1123.46
  853      550.372       1127.3
  854      550.789      1130.46
  855      551.206      1133.76
  856      551.623      1136.64
  857      552.039      1139.68
  858      552.456      1143.66
  859      552.873       1147.6
  860      553.289      1152.74
  861      553.705      1159.04
  862      554.121      1165.18
  863      554.537      1171.56
  864      554.953      1177.94
  865      555.369      1183.88
  866      555.785      1189.84
  867      556.201      1194.96
  868      556.616      1198.04
  869      557.032      1201.86
  870      557.447      1206.64
  871      557.862      1212.24
  872      558.277      1219.78
  873      558.692      1229.78
  874      559.107      1239.08
  875      559.522      1246.64
  876      559.937      1252.96
  877      560.351      1259.38
  878      560.766      1265.88
  879       561.18      1271.42
  880      561.595       1276.1
  881      562.009      1280.48
  882      562.423      1283.66
  883      562.837      1284.48
  884       563.25      1285.62
  885      563.664      1288.22
  886      564.078         1291
  887      564.491      1292.82
  888      564.905      1294.46
  889      565.318      1295.54
  890      565.731      1294.86
  891      566.144      1292.66
  892      566.557       1290.1
  893       566.97      1288.28
  894      567.383      1287.48
  895      567.795      1288.34
  896      568.208         1290
  897       568.62      1292.44
  898      569.033      1294.64
  899      569.445       1296.4
  900      569.857      1298.78
  901      570.269      1303.34
  902      570.681         1309
  903      571.093       1315.6
  904      571.504      1323.04
  905      571.916      1329.58
  906      572.327       1335.4
  907      572.739      1340.84
  908       573.15      1346.52
  909      573.561      1351.68
  910      573.972      1357.26
  911      574.383       1363.7
  912      574.794      1370.62
  913      575.204      1376.68
  914      575.615       1382.4
  915      576.025       1388.2
  916      576.436      1392.02
  917      576.846      1392.46
  918      577.256       1390.9
  919      577.666      1389.56
  920      578.076      1388.58
  921      578.486      1389.02
  922      578.896      1392.36
  923      579.305      1398.16
  924      579.715      1403.26
  925      580.124      1406.02
  926      580.533      1406.96
  927      580.942      1407.14
  928      581.351      1406.24
  929       581.76      1405.06
  930      582.169      1404.36
  931      582.578      1403.78
  932      582.986      1402.54
  933      583.395      1400.18
  934      583.803       1397.7
  935      584.212      1396.74
  936       584.62      1396.34
  937      585.028      1394.96
  938      585.436       1394.4
  939      585.843      1394.44
  940      586.251      1392.48
  941      586.659      1388.32
  942      587.066       1385.9
  943      587.474      1385.06
  944      587.881      1383.96
  945      588.288      1382.12
  946      588.695       1381.1
  947      589.102      1380.82
  948      589.509      1379.06
  949      589.915      1376.44
  950      590.322       1374.9
  951      590.728      1373.88
  952      591.135       1371.3
  953      591.541      1368.94
  954      591.947      1367.28
  955      592.353      1365.98
  956      592.759       1365.5
  957      593.165      1365.94
  958      593.571      1365.66
  959      593.976      1364.94
  960      594.382      1363.66
  961      594.787      1360.22
  962      595.192      1354.98
  963      595.597      1348.88
  964      596.002      1341.96
  965      596.407      1336.34
  966      596.812       1331.8
  967      597.217      1326.42
  968      597.621      1321.72
  969      598.026      1318.38
  970       598.43       1314.8
  971      598.834      1311.54
  972      599.238      1308.02
  973      599.642      1303.64
  974      600.046      1298.16
  975       600.45       1290.6
  976      600.854      1281.32
  977      601.257      1272.24
  978      601.661      1263.42
  979      602.064      1254.72
  980      602.467       1246.2
  981       602.87       1237.2
  982      603.273      1227.62
  983      603.676      1217.04
  984      604.079      1206.08
  985      604.481      1194.32
  986      604.884       1181.1
  987      605.286      1167.88
  988      605.689      1155.12
  989      606.091      1141.56
  990      606.493       1128.4
  991      606.895      1116.74
  992      607.297      1104.94
  993      607.698      1091.68
  994        608.1       1076.9
  995      608.501      1060.64
  996      608.903      1044.34
  997      609.304      1027.72
  998      609.705       1011.4
  999      610.106       995.96
 1000      610.507          980
 1001      610.908        962.2
 1002      611.308        943.1
 1003      611.709       923.36
 1004      612.109        902.6
 1005       612.51          883
 1006       612.91        865.2
 1007       613.31       849.04
 1008       613.71       833.88
 1009       614.11       819.58
 1010       614.51       805.64
 1011      614.909        792.2
 1012      615.309       778.02
 1013      615.708        763.6
 1014      616.108       750.46
 1015      616.507       737.94
 1016      616.906       725.62
 1017      617.305        714.7
 1018      617.704        704.8
 1019      618.102       695.78
 1020      618.501        687.7
 1021      618.899       680.12
 1022      619.298       673.42
 1023      619.696       668.08
 1024      620.094       662.76
 1025      620.492       657.54
 1026       620.89        652.8
 1027      621.288       648.52
 1028      621.686       644.64
 1029      622.083       641.68
 1030       622.48       639.76
 1031      622.878       638.84
 1032      623.275        638.2
 1033      623.672        637.5
 1034      624.069       636.56
 1035      624.466       635.16
 1036      624.863       633.22
 1037      625.259       631.36
 1038      625.656        630.2
 1039      626.052       629.32
 1040      626.448        628.1
 1041      626.844       627.08
 1042      627.241       626.66
 1043      627.636        625.9
 1044      628.032       625.14
 1045      628.428          625
 1046      628.823       624.88
 1047      629.219       624.68
 1048      629.614       624.86
 1049      630.009        625.1
 1050      630.404       625.48
 1051      630.799       625.88
 1052      631.194       625.98
 1053      631.589       625.64
 1054      631.984        625.5
 1055      632.378       625.74
 1056      632.772       625.58
 1057      633.167       624.66
 1058      633.561       623.96
 1059      633.955       623.68
 1060      634.349        622.6
 1061      634.743       621.66
 1062      635.136       621.24
 1063       635.53       620.46
 1064      635.923       619.14
 1065      636.316       618.06
 1066       636.71       617.32
 1067      637.103       616.98
 1068      637.496        617.3
 1069      637.888       617.44
 1070      638.281       617.42
 1071      638.674        617.6
 1072      639.066       617.42
 1073      639.459       616.68
 1074      639.851       616.56
 1075      640.243        616.7
 1076      640.635       616.32
 1077      641.027       616.28
 1078      641.419        616.3
 1079       641.81       615.46
 1080      642.202       614.56
 1081      642.593       614.08
 1082      642.984       613.42
 1083      643.375       612.68
 1084      643.766       612.82
 1085      644.157       613.04
 1086      644.548       612.84
 1087      644.939       612.94
 1088      645.329       613.14
 1089       645.72       613.54
 1090       646.11        613.8
 1091        646.5        613.6
 1092       646.89          613
 1093       647.28        612.8
 1094       647.67       612.18
 1095       648.06       611.98
 1096      648.449       612.12
 1097      648.839          612
 1098      649.228       611.96
 1099      649.617       612.38
 1100      650.007       612.18
 1101      650.396       612.02
 1102      650.784       612.32
 1103      651.173        612.1
 1104      651.562       611.36
 1105       651.95       610.82
 1106      652.339       610.52
 1107      652.727       610.16
 1108      653.115       610.02
 1109      653.503       609.66
 1110      653.891       609.44
 1111      654.279       608.96
 1112      654.666       608.36
 1113      655.054       607.78
 1114      655.441       607.48
 1115      655.828       606.76
 1116      656.216       605.58
 1117      656.603       604.28
 1118      656.989       603.14
 1119      657.376       601.72
 1120      657.763       600.52
 1121      658.149       600.28
 1122      658.536       600.62
 1123      658.922          601
 1124      659.308       601.48
 1125      659.694       601.52
 1126       660.08       600.88
 1127      660.466       599.74
 1128      660.852        598.4
 1129      661.237       597.42
 1130      661.623        597.2
 1131      662.008       597.28
 1132      662.393       597.16
 1133      662.778       596.78
 1134      663.163       596.12
 1135      663.548       595.42
 1136      663.933       594.78
 1137      664.317       594.68
 1138      664.702       594.84
 1139      665.086       594.86
 1140       665.47       594.72
 1141      665.854       593.98
 1142      666.238       592.82
 1143      666.622       592.04
 1144      667.006       591.44
 1145      667.389          591
 1146      667.773       591.32
 1147      668.156        591.6
 1148      668.539       591.62
 1149      668.923        591.7
 1150      669.305        591.3
 1151      669.688       590.56
 1152      670.071       590.38
 1153      670.454       589.92
 1154      670.836       589.46
 1155      671.218       589.62
 1156      671.601       589.62
 1157      671.983       589.12
 1158      672.365       589.08
 1159      672.747       589.32
 1160      673.128        589.3
 1161       673.51       589.42
 1162      673.891        589.4
 1163      674.273       589.04
 1164      674.654       588.24
 1165      675.035       587.12
 1166      675.416       586.38
 1167      675.797       586.04
 1168      676.177       585.86
 1169      676.558       586.04
 1170      676.938       586.56
 1171      677.319        587.2
 1172      677.699        588.7
 1173      678.079       590.06
 1174      678.459       590.58
 1175      678.839       590.42
 1176      679.219       589.82
 1177      679.598          589
 1178      679.978       588.72
 1179      680.357       589.08
 1180      680.736       589.54
 1181      681.115       589.38
 1182      681.494        588.5
 1183      681.873        587.2
 1184      682.252       585.88
 1185       682.63        585.4
 1186      683.009       586.06
 1187      683.387       586.64
 1188      683.765       586.94
 1189      684.143       587.54
 1190      684.521       587.56
 1191      684.899       587.22
 1192      685.277       587.28
 1193      685.654       587.42
 1194      686.032        587.1
 1195      686.409        586.7
 1196      686.786       586.16
 1197      687.163       585.56
 1198       687.54       584.68
 1199      687.917        583.5
 1200      688.294       582.54
 1201       688.67       581.96
 1202      689.046       581.42
 1203      689.423       581.86
 1204      689.799       583.06
 1205      690.175       584.38
 1206      690.551       585.84
 1207      690.927       587.52
 1208      691.302        587.9
 1209      691.678       587.58
 1210      692.053       587.08
 1211      692.428       586.18
 1212      692.804       584.94
 1213      693.179       584.18
 1214      693.553       583.68
 1215      693.928        583.3
 1216      694.303       582.94
 1217      694.677       582.56
 1218      695.052       582.42
 1219      695.426       581.98
 1220        695.8       581.94
 1221      696.174       582.42
 1222      696.548       582.92
 1223      696.921       583.28
 1224      697.295       583.54
 1225      697.669       583.28
 1226      698.042       582.18
 1227      698.415       580.72
 1228      698.788       579.58
 1229      699.161       579.36
 1230      699.534       579.28
 1231      699.907        579.3
 1232      700.279       579.22
 1233      700.652        579.1
 1234      701.024       578.96
 1235      701.396       579.24
 1236      701.768       579.92
 1237       702.14       581.14
 1238      702.512       582.68
 1239      702.883        583.5
 1240      703.255       583.62
 1241      703.626       583.94
 1242      703.998       583.78
 1243      704.369       582.68
 1244       704.74       581.66
 1245      705.111       580.86
 1246      705.481       580.08
 1247      705.852       579.78
 1248      706.222       579.64
 1249      706.593       579.38
 1250      706.963       579.76
 1251      707.333          580
 1252      707.703        580.1
 1253      708.073       580.26
 1254      708.442        580.2
 1255      708.812       579.78
 1256      709.181       579.46
 1257      709.551       578.84
 1258       709.92       578.14
 1259      710.289       577.98
 1260      710.658       577.66
 1261      711.027       577.14
 1262      711.395       577.18
 1263      711.764       577.58
 1264      712.132       577.74
 1265        712.5       578.08
 1266      712.869       578.32
 1267      713.236        578.4
 1268      713.604       578.28
 1269      713.972       578.08
 1270       714.34       577.46
 1271      714.707       576.84
 1272      715.074        576.2
 1273      715.442       575.84
 1274      715.809       575.82
 1275      716.176       576.18
 1276      716.542       576.58
 1277      716.909       576.46
 1278      717.276       576.68
 1279      717.642          577
 1280      718.008       577.14
 1281      718.374       577.28
 1282       718.74        577.4
 1283      719.106       577.12
 1284      719.472       576.92
 1285      719.838       576.96
 1286      720.203        576.8
 1287      720.568       576.78
 1288      720.934       577.12
 1289      721.299        577.5
 1290      721.664       577.38
 1291      722.029       577.62
 1292      722.393       578.24
 1293      722.758       578.74
 1294      723.122       578.92
 1295      723.486       578.56
 1296      723.851          578
 1297      724.215        577.7
 1298      724.578       577.06
 1299      724.942       576.14
 1300      725.306       576.16
 1301      725.669       576.44
 1302      726.033        577.3
 1303      726.396       579.04
 1304      726.759        580.5
 1305      727.122       581.12
 1306      727.485       581.02
 1307      727.847       580.02
 1308       728.21       578.22
 1309      728.572       576.76
 1310      728.935       575.76
 1311      729.297       575.42
 1312      729.659       574.92
 1313      730.021        574.3
 1314      730.382        573.8
 1315      730.744        573.5
 1316      731.105       573.26
 1317      731.467       573.62
 1318      731.828       573.72
 1319      732.189       573.38
 1320       732.55       573.26
 1321      732.911       573.04
 1322      733.271       572.72
 1323      733.632       572.82
 1324      733.992       573.28
 1325      734.352       573.56
 1326      734.713       574.02
 1327      735.072       574.06
 1328      735.432       574.28
 1329      735.792       575.24
 1330      736.152       576.48
 1331      736.511       577.26
 1332       736.87       577.54
 1333      737.229       577.72
 1334      737.589       577.52
 1335      737.947        577.5
 1336      738.306       577.84
 1337      738.665       578.74
 1338      739.023        579.2
 1339      739.382       578.74
 1340       739.74       577.36
 1341      740.098       575.54
 1342      740.456        573.9
 1343      740.814       572.68
 1344      741.171        572.4
 1345      741.529        572.9
 1346      741.886       573.54
 1347      742.244       574.18
 1348      742.601        574.6
 1349      742.958       574.62
 1350      743.314       574.06
 1351      743.671       573.56
 1352      744.028        573.1
 1353      744.384       572.82
 1354       744.74       572.84
 1355      745.097       573.28
 1356      745.453       573.64
 1357      745.809       574.34
 1358      746.164       575.22
 1359       746.52       576.06
 1360      746.875        576.7
 1361      747.231       577.08
 1362      747.586        576.7
 1363      747.941        576.4
 1364      748.296        576.1
 1365      748.651       575.46
 1366      749.005       574.94
 1367       749.36       574.84
 1368      749.714       574.68
 1369      750.069       574.94
 1370      750.423       575.88
 1371      750.777        577.1
 1372       751.13       578.12
 1373      751.484        578.6
 1374      751.838       578.74
 1375      752.191       578.42
 1376      752.544       577.56
 1377      752.897       576.64
 1378       753.25       576.12
 1379      753.603       575.78
 1380      753.956       575.62
 1381      754.309       575.72
 1382      754.661       576.06
 1383      755.013       576.42
 1384      755.365       576.06
 1385      755.717       575.84
 1386      756.069          576
 1387      756.421       575.64
 1388      756.773       574.76
 1389      757.124       574.66
 1390      757.476       575.32
 1391      757.827       575.92
 1392      758.178        576.4
 1393      758.529        576.9
 1394      758.879       577.08
 1395       759.23       576.82
 1396      759.581       576.72
 1397      759.931       577.02
 1398      760.281       577.34
 1399      760.631       577.72
 1400      760.981       578.28
 1401      761.331       578.52
 1402      761.681       578.08
 1403       762.03       578.18
 1404      762.379       578.64
 1405      762.729       578.02
 1406      763.078       576.86
 1407      763.427       576.28
 1408      763.776       575.38
 1409      764.124       574.06
 1410      764.473       572.96
 1411      764.821       572.08
 1412      765.169       571.48
 1413      765.517        571.3
 1414      765.865       571.02
 1415      766.213       570.82
 1416      766.561       571.04
 1417      766.909       571.14
 1418      767.256       571.48
 1419      767.603       572.16
 1420       767.95       572.48
 1421      768.297       572.98
 1422      768.644       574.12
 1423      768.991       574.46
 1424      769.337       574.24
 1425      769.684       574.52
 1426       770.03       575.06
 1427      770.376       575.34
 1428      770.722       575.64
 1429      771.068       576.46
 1430      771.414       577.32
 1431      771.759        577.6
 1432      772.105        577.5
 1433       772.45       577.66
 1434      772.795       577.58
 1435       773.14       577.44
 1436      773.485        577.7
 1437       773.83       577.58
 1438      774.174       577.32
 1439      774.519       577.18
 1440      774.863       576.88
 1441      775.207       576.68
 1442      775.551       576.74
 1443      775.895       576.62
 1444      776.239        576.3
 1445      776.582       576.12
 1446      776.926       575.36
 1447      777.269       574.34
 1448      777.612       573.64
 1449      777.955       573.32
 1450      778.298       573.06
 1451      778.641       573.18
 1452      778.983       573.74
 1453      779.326        574.2
 1454      779.668       574.16
 1455       780.01       574.38
 1456      780.352       574.96
 1457      780.694       575.32
 1458      781.036       575.68
 1459      781.377       576.42
 1460      781.719       577.02
 1461       782.06       577.14
 1462      782.401        577.1
 1463      782.742       576.92
 1464      783.083       576.62
 1465      783.424       576.32
 1466      783.764       576.04
 1467      784.105       576.18
 1468      784.445       576.76
 1469      784.785       577.76
 1470      785.125       578.92
 1471      785.465       579.76
 1472      785.805       579.82
 1473      786.144       579.48
 1474      786.484       578.84
 1475      786.823       577.52
 1476      787.162       576.18
 1477      787.501       575.22
 1478       787.84       574.84
 1479      788.178       574.86
 1480      788.517       575.54
 1481      788.855        576.7
 1482      789.194       577.64
 1483      789.532       578.34
 1484       789.87        579.1
 1485      790.208       579.54
 1486      790.545       579.22
 1487      790.883       579.14
 1488       791.22       579.26
 1489      791.557       579.12
 1490      791.894       578.46
 1491      792.231       577.62
 1492      792.568       576.88
 1493      792.905       575.98
 1494      793.241        574.9
 1495      793.578       574.34
 1496      793.914       574.56
 1497       794.25          575
 1498      794.586       574.72
 1499      794.922        574.1
 1500      795.257       573.88
 1501      795.593       573.68
 1502      795.928       573.42
 1503      796.263       573.62
 1504      796.598       574.34
 1505      796.933       574.84
 1506      797.268       575.22
 1507      797.603       575.58
 1508      797.937       575.48
 1509      798.271       574.84
 1510      798.606       574.22
 1511       798.94        573.8
 1512      799.274       573.82
 1513      799.607       574.38
 1514      799.941        574.8
 1515      800.274       574.94
 1516      800.608       574.54
 1517      800.941        573.5
 1518      801.274        572.9
 1519      801.607          573
 1520      801.939       573.42
 1521      802.272       574.82
 1522      802.604       576.18
 1523      802.936        576.6
 1524      803.269        577.1
 1525      803.601       577.84
 1526      803.932       577.76
 1527      804.264       577.32
 1528      804.596       577.26
 1529      804.927       576.94
 1530      805.258       575.88
 1531      805.589       574.84
 1532       805.92       574.42
 1533      806.251       574.42
 1534      806.582       574.46
 1535      806.912        574.8
 1536      807.242       575.34
 1537      807.573       576.14
 1538      807.903       576.84
 1539      808.232       577.26
 1540      808.562       577.46
 1541      808.892       577.94
 1542      809.221       577.82
 1543      809.551       576.94
 1544       809.88       576.56
 1545      810.209        576.9
 1546      810.538       576.96
 1547      810.866       576.84
 1548      811.195       577.14
 1549      811.523       576.84
 1550      811.851        575.7
 1551       812.18       574.46
 1552      812.507       573.72
 1553      812.835       573.54
 1554      813.163        573.9
 1555       813.49       574.06
 1556      813.818       573.72
 1557      814.145       573.78
 1558      814.472        573.8
 1559      814.799        573.5
 1560      815.126       574.18
 1561      815.452       575.64
 1562      815.779       576.88
 1563      816.105       577.84
 1564      816.431       578.14
 1565      816.757       577.38
 1566      817.083        576.8
 1567      817.409       576.52
 1568      817.734       576.38
 1569       818.06       576.92
 1570      818.385        577.9
 1571       818.71       578.38
 1572      819.035       578.08
 1573       819.36       577.22
 1574      819.685       575.98
 1575      820.009       575.12
 1576      820.333        574.7
 1577      820.658        574.9
 1578      820.982       575.62
 1579      821.305       576.38
 1580      821.629        576.7
 1581      821.953        576.9
 1582      822.276        577.4
 1583        822.6       578.18
 1584      822.923        578.6
 1585      823.246       578.48
 1586      823.569       578.36
 1587      823.891       577.68
 1588      824.214       576.32
 1589      824.536       575.56
 1590      824.858        576.1
 1591       825.18       576.86
 1592      825.502       577.08
 1593      825.824       577.36
 1594      826.146       577.64
 1595      826.467        577.2
 1596      826.789       576.44
 1597       827.11       575.88
 1598      827.431       574.92
 1599      827.752       574.16
 1600      828.072          574
 1601      828.393       574.04
 1602      828.713       574.54
 1603      829.034       574.96
 1604      829.354       575.14
 1605      829.674       574.88
 1606      829.993       574.84
 1607      830.313       574.38
 1608      830.633        574.1
 1609      830.952       574.06
 1610      831.271       574.34
 1611       831.59       574.14
 1612      831.909       573.88
 1613      832.228       574.08
 1614      832.546       574.12
 1615      832.865        573.9
 1616      833.183       573.56
 1617      833.501       573.24
 1618      833.819       572.86
 1619      834.137          572
 1620      834.455       570.76
 1621      834.772       569.68
 1622      835.089       569.52
 1623      835.407       570.12
 1624      835.724        571.2
 1625       836.04       572.34
 1626      836.357       573.44
 1627      836.674       574.88
 1628       836.99        576.2
 1629      837.306       576.98
 1630      837.623       577.68
 1631      837.939       578.12
 1632      838.254       577.14
 1633       838.57       575.24
 1634      838.886       574.28
 1635      839.201       573.76
 1636      839.516       573.58
 1637      839.831       573.96
 1638      840.146       574.06
 1639      840.461       573.68
 1640      840.775       573.26
 1641       841.09       572.68
 1642      841.404       571.98
 1643      841.718       572.16
 1644      842.032       572.62
 1645      842.346       573.24
 1646      842.659       573.68
 1647      842.973       574.14
 1648      843.286        574.4
 1649      843.599       573.96
 1650      843.912       572.98
 1651      844.225       572.74
 1652      844.538       572.84
 1653      844.851       572.74
 1654      845.163       573.02
 1655      845.475       573.56
 1656      845.787        573.8
 1657      846.099        573.9
 1658      846.411       573.96
 1659      846.723          574
 1660      847.034       574.32
 1661      847.345       574.26
 1662      847.657       574.02
 1663      847.968        573.9
 1664      848.278       573.54
 1665      848.589          573
 1666        848.9       572.62
 1667       849.21       572.34
 1668       849.52       572.58
 1669       849.83       573.44
 1670       850.14       574.04
 1671       850.45       574.58
 1672      850.759       575.08
 1673      851.069       575.28
 1674      851.378       575.08
 1675      851.687       574.58
 1676      851.996       573.98
 1677      852.305        573.7
 1678      852.614       573.68
 1679      852.922        574.1
 1680       853.23       575.12
 1681      853.539        576.2
 1682      853.847       576.88
 1683      854.154       577.14
 1684      854.462        576.9
 1685       854.77       576.48
 1686      855.077       576.24
 1687      855.384       575.76
 1688      855.691       575.12
 1689      855.998       574.44
 1690      856.305        573.4
 1691      856.612        572.5
 1692      856.918          572
 1693      857.224       571.68
 1694       857.53       571.98
 1695      857.836       572.72
 1696      858.142       573.08
 1697      858.448       572.86
 1698      858.753       572.28
 1699      859.059       571.52
 1700      859.364        571.2
 1701      859.669       571.18
 1702      859.974        571.3
 1703      860.278        571.6
 1704      860.583       572.08
 1705      860.887       572.18
 1706      861.192       572.12
 1707      861.496       572.38
 1708        861.8       572.74
 1709      862.103        572.9
 1710      862.407       573.14
 1711       862.71       573.42
 1712      863.014       573.72
 1713      863.317       574.12
 1714       863.62       574.38
 1715      863.922       574.38
 1716      864.225       574.28
 1717      864.527       574.04
 1718       864.83       573.76
 1719      865.132        573.4
 1720      865.434       573.36
 1721      865.736        573.8
 1722      866.037       574.46
 1723      866.339          575
 1724       866.64       575.22
 1725      866.941       575.14
 1726      867.242       574.94
 1727      867.543        574.8
 1728      867.844        574.6
 1729      868.145       574.32
 1730      868.445        574.2
 1731      868.745       573.94
 1732      869.045       573.34
 1733      869.345       572.56
 1734      869.645       572.42
 1735      869.944       572.24
 1736      870.244       571.92
 1737      870.543       572.18
 1738      870.842       572.84
 1739      871.141       573.12
 1740       871.44       573.82
 1741      871.739          575
 1742      872.037       575.78
 1743      872.335        576.2
 1744      872.634       576.86
 1745      872.931       577.38
 1746      873.229       576.74
 1747      873.527       575.04
 1748      873.824       573.58
 1749      874.122       572.62
 1750      874.419        571.8
 1751      874.716        571.2
 1752      875.013       571.58
 1753      875.309        572.6
 1754      875.606       573.54
 1755      875.902       573.88
 1756      876.199       574.86
 1757      876.495        575.9
 1758       876.79       576.04
 1759      877.086       575.56
 1760      877.382       575.48
 1761      877.677       575.26
 1762      877.972        574.7
 1763      878.267       574.32
 1764      878.562       574.18
 1765      878.857       573.82
 1766      879.152        573.7
 1767      879.446        573.8
 1768       879.74       573.72
 1769      880.034       573.34
 1770      880.328       573.08
 1771      880.622        572.8
 1772      880.916        573.1
 1773      881.209       573.94
 1774      881.502       574.52
 1775      881.795       574.58
 1776      882.088        574.2
 1777      882.381       573.16
 1778      882.674       572.02
 1779      882.966       571.76
 1780      883.258       572.24
 1781      883.551       572.88
 1782      883.843        573.1
 1783      884.134        572.8
 1784      884.426          572
 1785      884.717        570.9
 1786      885.009       570.26
 1787        885.3       570.14
 1788      885.591        570.4
 1789      885.882          571
 1790      886.172       571.74
 1791      886.463       572.64
 1792      886.753       573.82
 1793      887.043       575.36
 1794      887.333       576.86
 1795      887.623       577.98
 1796      887.913       577.84
 1797      888.202       576.94
 1798      888.492       575.78
 1799      888.781       574.56
 1800       889.07       573.56
 1801      889.359          573
 1802      889.647        573.3
 1803      889.936       573.92
 1804      890.224       574.44
 1805      890.512       574.88
 1806        890.8       575.44
 1807      891.088        575.2
 1808      891.376       573.94
 1809      891.663        572.9
 1810      891.951        572.8
 1811      892.238       572.76
 1812      892.525        573.1
 1813      892.812       573.64
 1814      893.099       573.18
 1815      893.385       571.98
 1816      893.671          571
 1817      893.958       570.16
 1818      894.244       569.72
 1819       894.53       569.76
 1820      894.815       569.46
 1821      895.101       569.32
 1822      895.386       569.44
 1823      895.671       569.62
 1824      895.956       569.94
 1825      896.241       570.84
 1826      896.526       571.92
 1827       896.81       572.62
 1828      897.095       573.34
 1829      897.379       573.92
 1830      897.663       573.84
 1831      897.947       573.22
 1832      898.231       572.62
 1833      898.514       571.54
 1834      898.798       570.58
 1835      899.081       570.02
 1836      899.364       569.94
 1837      899.647       570.24
 1838      899.929       570.98
 1839      900.212       571.86
 1840      900.494       572.46
 1841      900.776       572.84
 1842      901.058       573.12
 1843       901.34       572.86
 1844      901.622       572.94
 1845      901.904       573.14
 1846      902.185       573.02
 1847      902.466       573.12
 1848      902.747        573.9
 1849      903.028        574.2
 1850      903.309       574.46
 1851      903.589       574.74
 1852       903.87       574.52
 1853       904.15        574.1
 1854       904.43       574.08
 1855       904.71       574.56
 1856      904.989       575.12
 1857      905.269       575.78
 1858      905.548        576.3
 1859      905.827       576.12
 1860      906.106       575.36
 1861      906.385       574.62
 1862      906.664        574.2
 1863      906.942       574.06
 1864      907.221       574.34
 1865      907.499        574.6
 1866      907.777        575.1
 1867      908.055       574.94
 1868      908.332       573.96
 1869       908.61       573.06
 1870      908.887        572.9
 1871      909.164       572.56
 1872      909.441       572.94
 1873      909.718       573.98
 1874      909.995       574.74
 1875      910.271       575.38
 1876      910.548       575.34
 1877      910.824       574.08
 1878        911.1       572.72
 1879      911.375        571.7
 1880      911.651        570.5
 1881      911.927       570.06
 1882      912.202       571.02
 1883      912.477       572.14
 1884      912.752       573.14
 1885      913.027       573.84
 1886      913.301       573.72
 1887      913.576       573.04
 1888       913.85       572.84
 1889      914.124       573.16
 1890      914.398       573.28
 1891      914.672       573.94
 1892      914.945       574.46
 1893      915.219        574.1
 1894      915.492       573.54
 1895      915.765       573.52
 1896      916.038       573.98
 1897      916.311        574.6
 1898      916.583       575.68
 1899      916.856       576.28
 1900      917.128       576.26
 1901        917.4       575.86
 1902      917.672       575.22
 1903      917.944       574.52
 1904      918.215       574.22
 1905      918.486        574.5
 1906      918.758        574.6
 1907      919.029       574.72
 1908      919.299       574.62
 1909       919.57       573.94
 1910      919.841       573.02
 1911      920.111       572.48
 1912      920.381       572.26
 1913      920.651       572.16
 1914      920.921       572.58
 1915      921.191       573.02
 1916       921.46        572.9
 1917      921.729       572.18
 1918      921.999       571.46
 1919      922.268          571
 1920      922.536       570.96
 1921      922.805       571.16
 1922      923.073       571.68
 1923      923.342       572.42
 1924       923.61       572.56
 1925      923.878       572.14
 1926      924.145       571.68
 1927      924.413        570.8
 1928       924.68       569.74
 1929      924.948        569.7
 1930      925.215       570.32
 1931      925.482       571.34
 1932      925.748       572.74
 1933      926.015       573.88
 1934      926.281       574.54
 1935      926.547       574.76
 1936      926.813       574.38
 1937      927.079       573.78
 1938      927.345       573.02
 1939       927.61       572.08
 1940      927.876        571.5
 1941      928.141        571.2
 1942      928.406       571.22
 1943      928.671       571.54
 1944      928.935       571.46
 1945        929.2       571.22
 1946      929.464        571.3
 1947      929.728          571
 1948      929.992       570.92
 1949      930.256       571.52
 1950       930.52       571.74
 1951      930.783       571.76
 1952      931.046       572.44
 1953      931.309       573.14
 1954      931.572       573.18
 1955      931.835        573.2
 1956      932.097       573.66
 1957       932.36       574.04
 1958      932.622        574.1
 1959      932.884       574.46
 1960      933.146       574.94
 1961      933.408       574.82
 1962      933.669        574.7
 1963       933.93       574.74
 1964      934.192       574.48
 1965      934.453       574.02
 1966      934.713       573.94
 1967      934.974       573.88
 1968      935.234       574.04
 1969      935.495       574.16
 1970      935.755        574.2
 1971      936.015       573.92
 1972      936.274        573.8
 1973      936.534       573.32
 1974      936.793        572.8
 1975      937.053       572.88
 1976      937.312       573.56
 1977      937.571       573.82
 1978      937.829       574.12
 1979      938.088       575.12
 1980      938.346       575.44
 1981      938.604        574.4
 1982      938.862       573.56
 1983       939.12       573.12
 1984      939.378       572.24
 1985      939.635       571.66
 1986      939.893       571.64
 1987       940.15       571.14
 1988      940.407       570.64
 1989      940.663       570.34
 1990       940.92       569.88
 1991      941.176       569.46
 1992      941.433       569.54
 1993      941.689       569.42
 1994      941.944        569.4
 1995        942.2       569.72
 1996      942.456       569.98
 1997      942.711       570.04
 1998      942.966       570.48
 1999      943.221       571.02
 2000      943.476       571.64
 2001      943.731       572.44
 2002      943.985       572.94
 2003      944.239       572.88
 2004      944.493       572.82
 2005      944.747       572.38
 2006      945.001       572.14
 2007      945.255       572.52
 2008      945.508       573.02
 2009      945.761       573.18
 2010      946.014       573.06
 2011      946.267        572.5
 2012       946.52       572.28
 2013      946.772       572.72
 2014      947.025       573.42
 2015      947.277       574.24
 2016      947.529       574.78
 2017      947.781       574.24
 2018      948.032          573
 2019      948.284        571.7
 2020      948.535          571
 2021      948.786       570.84
 2022      949.037       571.06
 2023      949.288       571.64
 2024      949.538        572.2
 2025      949.789       572.38
 2026      950.039       572.64
 2027      950.289       572.94
 2028      950.539       572.66
 2029      950.788       571.96
 2030      951.038        571.7
 2031      951.287       571.94
 2032      951.536       572.56
 2033      951.785       573.64
 2034      952.034       574.96
 2035      952.282       575.88
 2036      952.531       576.24
 2037      952.779        576.2
 2038      953.027       575.72
 2039      953.275       575.22
 2040      953.523        574.9
 2041       953.77       574.16
 2042      954.017       573.04
 2043      954.264        572.5
 2044      954.511       571.98
 2045      954.758        570.9
 2046      955.005       570.55
 2047      955.251        570.8
