scansci Spectrometer Data File
--- Measurement Setting ---
Type: Sample Spectrum
Date: Mon Oct 16 16:33:57 2023
User: (Reserved by scansci)
Serial: (Reserved by scansci)
Channel: No. 11
Integration Time: 1
Average: 10
Boxcar: 2
Electrical Dark: No-corrected
Time Normalize: (Reserved by scansci)
Dual-beam: (Reserved by scansci)
Reference Ch: (Reserved by scansci)
--- Measurement Data ---
Pixel   Wavelength   Intensity
    0        344.4        652.8
    1      344.867      653.375
    2      345.334       653.42
    3      345.801       653.16
    4      346.268       652.78
    5      346.735       652.08
    6      347.202       650.92
    7      347.669       650.24
    8      348.135       650.42
    9      348.602       650.66
   10      349.068       650.76
   11      349.535        650.5
   12      350.001          650
   13      350.467       649.82
   14      350.933       649.94
   15      351.399        650.1
   16      351.866       650.58
   17      352.331       651.06
   18      352.797       650.54
   19      353.263        649.6
   20      353.729       649.02
   21      354.194       648.68
   22       354.66        648.5
   23      355.126        648.5
   24      355.591       648.64
   25      356.056       648.76
   26      356.522       648.72
   27      356.987       648.88
   28      357.452       649.76
   29      357.917       650.66
   30      358.382       651.38
   31      358.847       651.96
   32      359.312        652.5
   33      359.776        652.9
   34      360.241          653
   35      360.706        652.8
   36       361.17       652.76
   37      361.634       652.32
   38      362.099       650.96
   39      362.563       649.82
   40      363.027       649.06
   41      363.491       648.26
   42      363.955       647.78
   43      364.419       648.14
   44      364.883       648.48
   45      365.347       648.56
   46      365.811        649.1
   47      366.274        649.6
   48      366.738       649.64
   49      367.201       649.52
   50      367.665        649.6
   51      368.128       649.68
   52      368.592       649.92
   53      369.055        650.2
   54      369.518       650.48
   55      369.981       650.86
   56      370.444       650.96
   57      370.907        650.6
   58       371.37       650.36
   59      371.832       649.98
   60      372.295        649.4
   61      372.757       649.04
   62       373.22       648.72
   63      373.682       648.32
   64      374.145       648.54
   65      374.607       648.92
   66      375.069       648.86
   67      375.531       648.82
   68      375.993        649.4
   69      376.455       650.64
   70      376.917       652.14
   71      377.379       653.36
   72      377.841       654.46
   73      378.302       654.92
   74      378.764        654.3
   75      379.225       653.36
   76      379.687       652.66
   77      380.148       651.88
   78      380.609        651.2
   79      381.071       650.94
   80      381.532       650.62
   81      381.993       650.06
   82      382.454       649.32
   83      382.915       648.54
   84      383.375        648.1
   85      383.836       648.34
   86      384.297       649.42
   87      384.757       651.02
   88      385.218       652.28
   89      385.678          653
   90      386.138       653.74
   91      386.599       653.94
   92      387.059       653.92
   93      387.519       654.18
   94      387.979       654.28
   95      388.439       653.52
   96      388.899       652.84
   97      389.358       652.78
   98      389.818        652.8
   99      390.278       652.52
  100      390.737       652.24
  101      391.197       651.84
  102      391.656       651.14
  103      392.115       650.54
  104      392.575        650.5
  105      393.034       650.48
  106      393.493        650.6
  107      393.952        651.1
  108      394.411        651.5
  109       394.87       651.94
  110      395.328       652.46
  111      395.787       652.78
  112      396.246       652.18
  113      396.704       651.36
  114      397.163       650.24
  115      397.621       649.16
  116      398.079       648.38
  117      398.537          648
  118      398.995       647.78
  119      399.454       648.02
  120      399.911       648.56
  121      400.369       648.76
  122      400.827       648.98
  123      401.285        649.9
  124      401.743       650.58
  125        402.2       650.58
  126      402.658       650.64
  127      403.115       651.04
  128      403.572       650.84
  129       404.03       650.24
  130      404.487       650.14
  131      404.944        650.6
  132      405.401       651.36
  133      405.858        652.4
  134      406.315       653.26
  135      406.771       653.92
  136      407.228       653.96
  137      407.685       653.18
  138      408.141       652.18
  139      408.598        651.4
  140      409.054       650.46
  141       409.51       649.86
  142      409.967        649.5
  143      410.423       649.16
  144      410.879       649.32
  145      411.335       649.78
  146      411.791       650.16
  147      412.246        650.5
  148      412.702       650.28
  149      413.158        649.7
  150      413.613       649.44
  151      414.069       649.52
  152      414.524       649.84
  153       414.98       650.44
  154      415.435        651.1
  155       415.89       651.58
  156      416.345       651.58
  157        416.8       651.12
  158      417.255       651.02
  159       417.71       651.22
  160      418.165       651.34
  161      418.619       651.36
  162      419.074       650.84
  163      419.529        650.1
  164      419.983       649.72
  165      420.437       649.46
  166      420.892       649.58
  167      421.346        650.7
  168        421.8       651.64
  169      422.254       651.82
  170      422.708       651.86
  171      423.162       651.52
  172      423.616       650.96
  173       424.07       651.22
  174      424.523          652
  175      424.977       651.98
  176       425.43       651.78
  177      425.884       651.96
  178      426.337       651.56
  179       426.79       650.58
  180      427.243        650.4
  181      427.697       650.58
  182       428.15       650.44
  183      428.602        650.6
  184      429.055       651.14
  185      429.508       651.72
  186      429.961        652.1
  187      430.413       651.88
  188      430.866       650.74
  189      431.318       649.52
  190      431.771       648.84
  191      432.223        648.7
  192      432.675       649.46
  193      433.127       650.64
  194      433.579        651.5
  195      434.031       651.78
  196      434.483        651.5
  197      434.935        650.7
  198      435.387       650.06
  199      435.838       649.78
  200       436.29        649.9
  201      436.741       650.38
  202      437.193        650.8
  203      437.644       651.12
  204      438.095       651.34
  205      438.546       651.16
  206      438.997        650.9
  207      439.448       650.84
  208      439.899       650.86
  209       440.35       651.16
  210      440.801       651.86
  211      441.251       652.72
  212      441.702       653.04
  213      442.152       653.16
  214      442.603       653.34
  215      443.053       653.04
  216      443.503       652.22
  217      443.954       651.42
  218      444.404       650.66
  219      444.854        649.4
  220      445.304       648.26
  221      445.753       647.34
  222      446.203       646.78
  223      446.653       646.34
  224      447.102       646.18
  225      447.552       646.12
  226      448.001       646.26
  227      448.451        646.6
  228        448.9        647.2
  229      449.349        647.7
  230      449.798        648.3
  231      450.247       649.32
  232      450.696        650.4
  233      451.145       650.98
  234      451.594       651.34
  235      452.042       651.14
  236      452.491       650.22
  237      452.939       649.34
  238      453.388       648.92
  239      453.836       648.84
  240      454.285        648.9
  241      454.733        649.1
  242      455.181       649.34
  243      455.629       649.28
  244      456.077        649.3
  245      456.525       649.88
  246      456.972       650.34
  247       457.42       650.52
  248      457.868       650.96
  249      458.315       651.34
  250      458.763       651.38
  251       459.21       651.72
  252      459.657       651.82
  253      460.104       651.66
  254      460.552       651.42
  255      460.999       651.12
  256      461.446       650.86
  257      461.892        651.2
  258      462.339       651.76
  259      462.786       651.76
  260      463.233        651.3
  261      463.679       650.72
  262      464.125        650.2
  263      464.572       649.72
  264      465.018       649.78
  265      465.464        650.4
  266       465.91       650.82
  267      466.356       650.72
  268      466.802       650.98
  269      467.248       651.88
  270      467.694       652.64
  271       468.14       653.24
  272      468.585       654.28
  273      469.031       654.82
  274      469.476       654.12
  275      469.922        653.4
  276      470.367       653.34
  277      470.812       653.14
  278      471.257       653.22
  279      471.702        653.2
  280      472.147       653.12
  281      472.592       652.52
  282      473.037        651.5
  283      473.482       650.24
  284      473.926       649.48
  285      474.371       648.68
  286      474.815       648.42
  287      475.259        648.9
  288      475.704        649.4
  289      476.148       650.12
  290      476.592       651.18
  291      477.036       651.98
  292       477.48       652.08
  293      477.924       651.98
  294      478.368       651.74
  295      478.811        651.5
  296      479.255       651.22
  297      479.698       651.18
  298      480.142        651.1
  299      480.585       651.16
  300      481.028       651.64
  301      481.472        652.2
  302      481.915       652.54
  303      482.358       652.76
  304      482.801       653.12
  305      483.244       652.98
  306      483.686       652.22
  307      484.129       651.62
  308      484.572       651.32
  309      485.014       650.66
  310      485.456       649.64
  311      485.899        649.1
  312      486.341       649.26
  313      486.783       649.98
  314      487.225          651
  315      487.667       652.24
  316      488.109       652.96
  317      488.551       652.72
  318      488.993        652.3
  319      489.434       651.94
  320      489.876       651.46
  321      490.318       651.22
  322      490.759       651.34
  323        491.2       651.18
  324      491.641       650.64
  325      492.083        650.3
  326      492.524       650.62
  327      492.965        650.9
  328      493.406       650.94
  329      493.846       651.38
  330      494.287        651.5
  331      494.728       651.04
  332      495.168       650.88
  333      495.609       650.72
  334      496.049       650.28
  335      496.489       649.96
  336       496.93       649.28
  337       497.37       648.22
  338       497.81       647.66
  339       498.25       647.22
  340       498.69        647.3
  341      499.129       648.56
  342      499.569       649.88
  343      500.009        650.5
  344      500.448       651.24
  345      500.888       651.44
  346      501.327          651
  347      501.766       650.86
  348      502.206       651.04
  349      502.645       651.06
  350      503.084       651.56
  351      503.523       652.24
  352      503.961       652.58
  353        504.4        652.8
  354      504.839          653
  355      505.277        653.1
  356      505.716       652.98
  357      506.154       652.56
  358      506.593       651.84
  359      507.031       650.76
  360      507.469       649.52
  361      507.907       648.74
  362      508.345       648.66
  363      508.783        649.1
  364      509.221        649.7
  365      509.659       650.04
  366      510.096       649.82
  367      510.534        649.5
  368      510.971       649.04
  369      511.409       648.68
  370      511.846        648.6
  371      512.283       648.62
  372       512.72       648.72
  373      513.157       648.62
  374      513.594       647.92
  375      514.031       647.36
  376      514.468       647.08
  377      514.905       646.38
  378      515.341       646.04
  379      515.778       646.76
  380      516.214        647.6
  381       516.65        648.5
  382      517.087       649.26
  383      517.523       649.64
  384      517.959       650.02
  385      518.395       650.28
  386      518.831       650.52
  387      519.267        650.7
  388      519.702       650.84
  389      520.138       650.72
  390      520.574       650.42
  391      521.009       649.94
  392      521.444        649.8
  393       521.88        649.9
  394      522.315       650.08
  395       522.75       649.98
  396      523.185       650.06
  397       523.62       650.14
  398      524.055       649.88
  399       524.49       649.12
  400      524.924       648.88
  401      525.359       648.62
  402      525.794        648.3
  403      526.228       648.72
  404      526.662       649.86
  405      527.097       650.76
  406      527.531       651.32
  407      527.965       651.98
  408      528.399       652.16
  409      528.833        652.2
  410      529.267       652.32
  411        529.7       652.56
  412      530.134        652.4
  413      530.568          652
  414      531.001       651.24
  415      531.434       650.62
  416      531.868       650.04
  417      532.301       649.48
  418      532.734        649.7
  419      533.167       650.08
  420        533.6       650.06
  421      534.033       649.98
  422      534.466       649.94
  423      534.898       649.08
  424      535.331        648.1
  425      535.763       647.48
  426      536.196       647.14
  427      536.628        647.7
  428       537.06       649.22
  429      537.493       650.76
  430      537.925       652.08
  431      538.357       653.12
  432      538.788       653.44
  433       539.22       653.12
  434      539.652        653.1
  435      540.084       653.34
  436      540.515       653.38
  437      540.947       653.58
  438      541.378       653.68
  439      541.809       653.06
  440       542.24       652.56
  441      542.672       652.48
  442      543.103        651.8
  443      543.533        651.2
  444      543.964        651.1
  445      544.395       650.98
  446      544.826       651.18
  447      545.256       651.98
  448      545.687       652.88
  449      546.117        653.4
  450      546.547       653.14
  451      546.978        652.1
  452      547.408       651.04
  453      547.838       650.06
  454      548.268       649.74
  455      548.698       649.98
  456      549.127        650.7
  457      549.557       651.32
  458      549.987       651.64
  459      550.416       651.72
  460      550.846       651.84
  461      551.275        651.5
  462      551.704          651
  463      552.133       650.16
  464      552.562       648.78
  465      552.991       647.88
  466       553.42        647.7
  467      553.849       647.74
  468      554.278       648.72
  469      554.706       650.26
  470      555.135       650.88
  471      555.563          651
  472      555.991       651.28
  473       556.42       651.48
  474      556.848       651.46
  475      557.276       651.86
  476      557.704       652.44
  477      558.132       652.76
  478       558.56       652.78
  479      558.987       652.82
  480      559.415       652.56
  481      559.843       651.92
  482       560.27        651.4
  483      560.697       650.88
  484      561.125       650.38
  485      561.552       650.26
  486      561.979        650.4
  487      562.406       650.52
  488      562.833       650.56
  489       563.26       650.74
  490      563.686       650.98
  491      564.113       651.16
  492       564.54       651.44
  493      564.966       651.54
  494      565.392        651.3
  495      565.819       650.78
  496      566.245       650.68
  497      566.671       650.74
  498      567.097       650.56
  499      567.523       650.44
  500      567.949       650.62
  501      568.374       650.42
  502        568.8       649.74
  503      569.226        649.6
  504      569.651       649.66
  505      570.077        649.4
  506      570.502       649.54
  507      570.927        649.9
  508      571.352       649.88
  509      571.777       649.64
  510      572.202       649.28
  511      572.627       648.38
  512      573.052       647.64
  513      573.476       647.26
  514      573.901        647.2
  515      574.325       647.98
  516       574.75       649.28
  517      575.174       650.14
  518      575.598       651.12
  519      576.022       652.42
  520      576.446       652.74
  521       576.87       652.24
  522      577.294       651.38
  523      577.718       650.12
  524      578.142       648.84
  525      578.565       648.12
  526      578.989       648.16
  527      579.412       649.02
  528      579.835       649.72
  529      580.259       649.92
  530      580.682       650.22
  531      581.105       650.22
  532      581.528       650.14
  533      581.951        650.2
  534      582.373       650.24
  535      582.796        650.3
  536      583.219       650.56
  537      583.641        650.3
  538      584.063       650.16
  539      584.486       650.18
  540      584.908       649.86
  541       585.33       649.54
  542      585.752       649.74
  543      586.174       649.84
  544      586.596       649.94
  545      587.018       650.14
  546      587.439       649.92
  547      587.861       650.06
  548      588.282       650.42
  549      588.704       650.34
  550      589.125       650.22
  551      589.546       650.16
  552      589.967       649.62
  553      590.388       649.18
  554      590.809       649.18
  555       591.23        649.3
  556      591.651       649.56
  557      592.071        650.1
  558      592.492       651.06
  559      592.912       651.68
  560      593.333        651.8
  561      593.753       651.78
  562      594.173       651.22
  563      594.593        650.4
  564      595.013        650.1
  565      595.433       650.16
  566      595.853       650.48
  567      596.273       651.28
  568      596.693       651.62
  569      597.112        651.8
  570      597.532       652.08
  571      597.951        652.3
  572       598.37       652.46
  573      598.789        652.6
  574      599.208       652.72
  575      599.627       653.16
  576      600.046        653.6
  577      600.465       653.52
  578      600.884       653.66
  579      601.303       653.44
  580      601.721       652.72
  581      602.139       652.16
  582      602.558          652
  583      602.976        652.2
  584      603.394       652.88
  585      603.812       653.38
  586       604.23        653.7
  587      604.648       654.22
  588      605.066       654.68
  589      605.484       654.78
  590      605.901        654.8
  591      606.319       654.94
  592      606.736       654.88
  593      607.154       654.44
  594      607.571        654.4
  595      607.988       655.16
  596      608.405       655.72
  597      608.822       656.14
  598      609.239       656.86
  599      609.656       657.52
  600      610.072       657.68
  601      610.489       657.96
  602      610.905        658.3
  603      611.322       658.66
  604      611.738       659.26
  605      612.154       659.54
  606       612.57       660.04
  607      612.986       661.02
  608      613.402        662.1
  609      613.818       662.82
  610      614.234        664.4
  611       614.65       666.42
  612      615.065       668.26
  613      615.481       669.88
  614      615.896       671.66
  615      616.311        673.1
  616      616.727       674.84
  617      617.142        676.8
  618      617.557        678.8
  619      617.972       681.72
  620      618.386       685.54
  621      618.801        688.6
  622      619.216        691.9
  623       619.63       696.64
  624      620.045       701.64
  625      620.459        706.5
  626      620.873       712.34
  627      621.287        719.1
  628      621.702       725.66
  629      622.116        732.2
  630      622.529       739.38
  631      622.943       747.34
  632      623.357       755.42
  633      623.771       763.72
  634      624.184       771.86
  635      624.597       779.36
  636      625.011       786.22
  637      625.424       791.86
  638      625.837        796.7
  639       626.25       801.28
  640      626.663       805.82
  641      627.076       809.84
  642      627.489       814.36
  643      627.901       819.02
  644      628.314        823.1
  645      628.726       826.44
  646      629.139       829.64
  647      629.551       832.22
  648      629.963       833.86
  649      630.375       835.44
  650      630.787       836.68
  651      631.199       836.28
  652      631.611       835.04
  653      632.023        833.6
  654      632.434        831.8
  655      632.846       830.22
  656      633.257       829.24
  657      633.669       827.92
  658       634.08        826.7
  659      634.491       825.44
  660      634.902       823.72
  661      635.313       821.72
  662      635.724       820.46
  663      636.135       820.14
  664      636.545       819.76
  665      636.956       819.38
  666      637.366       819.56
  667      637.777       819.56
  668      638.187       818.46
  669      638.597       817.14
  670      639.007        816.1
  671      639.417       815.36
  672      639.827       814.88
  673      640.237       814.56
  674      640.647       814.66
  675      641.056       814.68
  676      641.466        813.7
  677      641.875       812.42
  678      642.285        811.2
  679      642.694        809.5
  680      643.103       807.26
  681      643.512        805.7
  682      643.921       804.72
  683       644.33       803.56
  684      644.739       802.86
  685      645.148       802.64
  686      645.556       801.78
  687      645.965        800.3
  688      646.373       798.74
  689      646.781       796.92
  690      647.189       794.98
  691      647.598       793.06
  692      648.006       791.34
  693      648.414       790.24
  694      648.821       789.16
  695      649.229       788.28
  696      649.637       788.24
  697      650.044        788.1
  698      650.452        786.9
  699      650.859       784.96
  700      651.266       783.02
  701      651.673       780.84
  702       652.08       778.52
  703      652.487       776.84
  704      652.894        775.8
  705      653.301        774.4
  706      653.708       772.84
  707      654.114       771.54
  708      654.521       770.36
  709      654.927       769.26
  710      655.333       768.62
  711       655.74       768.24
  712      656.146       767.64
  713      656.552       766.66
  714      656.958       765.52
  715      657.363       763.86
  716      657.769       761.62
  717      658.175       759.18
  718       658.58       756.78
  719      658.986        754.9
  720      659.391       753.68
  721      659.796       752.46
  722      660.201       751.78
  723      660.606        751.3
  724      661.011        750.3
  725      661.416       749.06
  726      661.821       748.56
  727      662.225       747.88
  728       662.63       747.04
  729      663.034       746.72
  730      663.439       746.68
  731      663.843       746.08
  732      664.247       745.12
  733      664.651       743.84
  734      665.055       741.98
  735      665.459       740.42
  736      665.863       739.26
  737      666.267       738.06
  738       666.67       737.36
  739      667.074       736.88
  740      667.477       736.02
  741       667.88       735.34
  742      668.283       734.56
  743      668.687       733.16
  744       669.09       732.02
  745      669.492       730.54
  746      669.895        728.8
  747      670.298       728.16
  748      670.701       728.62
  749      671.103       729.04
  750      671.505       729.32
  751      671.908       729.02
  752       672.31       727.98
  753      672.712       726.76
  754      673.114       725.52
  755      673.516       724.16
  756      673.918       722.92
  757       674.32       721.64
  758      674.721       719.92
  759      675.123       718.16
  760      675.524       717.22
  761      675.926        716.9
  762      676.327       716.66
  763      676.728        716.5
  764      677.129       716.38
  765       677.53       715.76
  766      677.931       715.22
  767      678.332       715.06
  768      678.732       714.68
  769      679.133       713.62
  770      679.533        712.2
  771      679.934       710.42
  772      680.334        708.6
  773      680.734       707.22
  774      681.134       706.64
  775      681.534       706.36
  776      681.934       706.14
  777      682.334       705.94
  778      682.733       705.86
  779      683.133       705.16
  780      683.532        705.1
  781      683.932       705.08
  782      684.331       704.28
  783       684.73       702.98
  784      685.129       702.18
  785      685.528       700.98
  786      685.927       699.52
  787      686.326       698.82
  788      686.725        698.9
  789      687.123       699.22
  790      687.522        699.5
  791       687.92       700.06
  792      688.319       700.24
  793      688.717       699.62
  794      689.115        698.8
  795      689.513       697.84
  796      689.911       696.64
  797      690.309       695.76
  798      690.706       695.46
  799      691.104       694.98
  800      691.501       694.64
  801      691.899       694.88
  802      692.296        695.1
  803      692.693       694.86
  804       693.09       694.46
  805      693.488       693.74
  806      693.884       692.56
  807      694.281       691.16
  808      694.678        689.7
  809      695.075       688.24
  810      695.471       686.98
  811      695.868       686.04
  812      696.264        685.5
  813       696.66       685.22
  814      697.056       685.24
  815      697.452        685.2
  816      697.848       684.98
  817      698.244       684.66
  818       698.64        684.6
  819      699.035        684.7
  820      699.431       684.62
  821      699.826       684.18
  822      700.222       683.64
  823      700.617       683.16
  824      701.012       683.18
  825      701.407       683.96
  826      701.802       684.88
  827      702.197       685.52
  828      702.592       685.44
  829      702.986       684.36
  830      703.381        683.3
  831      703.775       682.58
  832       704.17       681.96
  833      704.564       681.42
  834      704.958        680.6
  835      705.352       679.14
  836      705.746       677.64
  837       706.14       676.32
  838      706.533       675.66
  839      706.927       675.64
  840      707.321       675.44
  841      707.714       675.06
  842      708.107       674.72
  843      708.501       673.76
  844      708.894       672.72
  845      709.287       672.32
  846       709.68       672.12
  847      710.073       671.72
  848      710.465       671.48
  849      710.858        671.5
  850      711.251        671.2
  851      711.643       670.46
  852      712.035       669.78
  853      712.428       669.06
  854       712.82       668.44
  855      713.212       668.26
  856      713.604       668.56
  857      713.995       668.86
  858      714.387       668.84
  859      714.779       668.16
  860       715.17        667.3
  861      715.562        666.1
  862      715.953       664.96
  863      716.344        664.4
  864      716.735        664.2
  865      717.127       663.64
  866      717.517       663.72
  867      717.908        664.1
  868      718.299       664.44
  869       718.69       664.86
  870       719.08       664.98
  871      719.471       664.38
  872      719.861        663.7
  873      720.251        662.8
  874      720.641       661.96
  875      721.031       661.94
  876      721.421       662.32
  877      721.811       662.64
  878      722.201       663.36
  879       722.59       664.26
  880       722.98       664.46
  881      723.369       664.66
  882      723.759       664.98
  883      724.148       665.04
  884      724.537       665.06
  885      724.926       665.42
  886      725.315       665.36
  887      725.704        665.1
  888      726.092       664.54
  889      726.481       663.66
  890       726.87        663.1
  891      727.258       662.44
  892      727.646       661.82
  893      728.034       662.02
  894      728.423       662.68
  895      728.811       663.12
  896      729.198       664.02
  897      729.586       664.58
  898      729.974       664.14
  899      730.362        663.1
  900      730.749       662.06
  901      731.136       661.02
  902      731.524       660.34
  903      731.911       660.64
  904      732.298       661.24
  905      732.685       661.18
  906      733.072       660.48
  907      733.459       659.84
  908      733.845          659
  909      734.232       658.38
  910      734.618       658.34
  911      735.005       658.26
  912      735.391       657.74
  913      735.777       657.02
  914      736.163       655.92
  915      736.549       654.86
  916      736.935       654.34
  917      737.321       654.28
  918      737.706       654.62
  919      738.092       655.54
  920      738.477       656.18
  921      738.863       656.86
  922      739.248        657.8
  923      739.633       658.38
  924      740.018        658.2
  925      740.403       658.08
  926      740.788        657.8
  927      741.173       657.18
  928      741.557        656.6
  929      741.942       656.22
  930      742.326       655.92
  931      742.711       655.36
  932      743.095       654.68
  933      743.479       654.24
  934      743.863        654.1
  935      744.247       654.14
  936      744.631       653.98
  937      745.015       653.02
  938      745.398        651.7
  939      745.782       650.78
  940      746.165        650.1
  941      746.548       650.22
  942      746.932       651.52
  943      747.315       652.84
  944      747.698        653.2
  945      748.081       653.12
  946      748.463        653.1
  947      748.846       653.42
  948      749.229       653.42
  949      749.611       653.22
  950      749.993       653.32
  951      750.376       653.28
  952      750.758       652.86
  953       751.14       653.12
  954      751.522       653.94
  955      751.904       654.36
  956      752.285       654.36
  957      752.667       653.96
  958      753.049       653.18
  959       753.43       652.52
  960      753.811        652.1
  961      754.193       651.64
  962      754.574       651.08
  963      754.955       650.54
  964      755.336        650.2
  965      755.717          650
  966      756.097        650.1
  967      756.478        650.7
  968      756.858       651.38
  969      757.239       651.64
  970      757.619       652.02
  971      757.999       652.68
  972      758.379       653.08
  973      758.759       653.44
  974      759.139       653.12
  975      759.519        652.1
  976      759.899       651.48
  977      760.278       650.98
  978      760.658       650.04
  979      761.037       649.76
  980      761.417        650.1
  981      761.796       649.88
  982      762.175       649.44
  983      762.554       649.08
  984      762.933       648.74
  985      763.311       648.32
  986       763.69          648
  987      764.068       648.06
  988      764.447        648.9
  989      764.825       649.76
  990      765.203       649.94
  991      765.582        649.8
  992       765.96       649.46
  993      766.338       648.96
  994      766.715       648.76
  995      767.093       649.08
  996      767.471       649.76
  997      767.848       650.32
  998      768.226       650.62
  999      768.603       650.46
 1000       768.98        650.2
 1001      769.357       649.56
 1002      769.734       648.74
 1003      770.111        648.2
 1004      770.488       648.38
 1005      770.864        648.7
 1006      771.241       649.06
 1007      771.617       649.68
 1008      771.994       650.06
 1009       772.37       650.14
 1010      772.746        650.4
 1011      773.122       650.76
 1012      773.498        651.1
 1013      773.874       651.38
 1014       774.25        651.5
 1015      774.625       651.28
 1016      775.001       651.08
 1017      775.376       650.72
 1018      775.751       650.44
 1019      776.127       649.76
 1020      776.502       649.12
 1021      776.877        648.7
 1022      777.252       648.76
 1023      777.626        648.7
 1024      778.001       648.78
 1025      778.375       649.38
 1026       778.75       650.22
 1027      779.124       650.64
 1028      779.499        650.8
 1029      779.873       651.06
 1030      780.247       651.02
 1031      780.621       650.62
 1032      780.994       649.96
 1033      781.368       649.76
 1034      781.742       649.84
 1035      782.115       649.78
 1036      782.489       649.82
 1037      782.862        649.8
 1038      783.235       649.54
 1039      783.608       648.96
 1040      783.981        648.1
 1041      784.354       647.06
 1042      784.727       647.12
 1043        785.1       647.44
 1044      785.472       647.76
 1045      785.845       648.54
 1046      786.217       649.28
 1047      786.589        649.6
 1048      786.961       649.64
 1049      787.333          650
 1050      787.705       650.24
 1051      788.077       650.46
 1052      788.449       650.24
 1053       788.82       650.06
 1054      789.192       649.76
 1055      789.563       649.46
 1056      789.934       649.48
 1057      790.306       649.92
 1058      790.677       650.62
 1059      791.048       651.42
 1060      791.419       652.04
 1061      791.789       651.74
 1062       792.16       650.94
 1063       792.53       649.72
 1064      792.901       648.22
 1065      793.271       646.94
 1066      793.641       646.66
 1067      794.012       646.84
 1068      794.382       647.26
 1069      794.751          648
 1070      795.121       649.06
 1071      795.491       650.02
 1072      795.861       650.42
 1073       796.23       650.76
 1074      796.599       650.78
 1075      796.969       650.12
 1076      797.338       649.64
 1077      797.707       649.46
 1078      798.076       649.22
 1079      798.445       649.16
 1080      798.813       649.66
 1081      799.182       650.06
 1082       799.55        650.4
 1083      799.919       650.44
 1084      800.287       650.44
 1085      800.655       650.82
 1086      801.023       651.18
 1087      801.391          651
 1088      801.759       650.66
 1089      802.127       650.68
 1090      802.495       649.92
 1091      802.862       648.48
 1092       803.23       647.88
 1093      803.597       647.82
 1094      803.964        647.7
 1095      804.331       647.94
 1096      804.698       648.44
 1097      805.065        648.9
 1098      805.432       649.42
 1099      805.799       649.52
 1100      806.165       649.82
 1101      806.532        650.3
 1102      806.898       650.56
 1103      807.264       650.58
 1104      807.631       650.16
 1105      807.997        649.4
 1106      808.363       648.78
 1107      808.728       648.28
 1108      809.094       648.04
 1109       809.46        648.4
 1110      809.825       648.64
 1111      810.191       648.84
 1112      810.556       648.88
 1113      810.921       648.86
 1114      811.286       648.92
 1115      811.651       649.36
 1116      812.016       649.68
 1117      812.381       650.02
 1118      812.745        650.1
 1119       813.11       650.06
 1120      813.474       649.94
 1121      813.839       649.76
 1122      814.203        649.2
 1123      814.567       649.02
 1124      814.931       649.06
 1125      815.295       648.78
 1126      815.659       648.98
 1127      816.022       649.64
 1128      816.386       649.68
 1129      816.749       649.58
 1130      817.113       649.68
 1131      817.476       648.94
 1132      817.839        647.9
 1133      818.202       647.64
 1134      818.565       647.44
 1135      818.928          647
 1136      819.291       647.04
 1137      819.653       647.58
 1138      820.016        648.2
 1139      820.378       648.82
 1140       820.74       649.52
 1141      821.102       649.66
 1142      821.464       649.66
 1143      821.826        649.8
 1144      822.188       649.48
 1145       822.55       648.82
 1146      822.912       648.96
 1147      823.273          649
 1148      823.634       648.42
 1149      823.996       648.16
 1150      824.357        648.3
 1151      824.718        647.9
 1152      825.079       647.74
 1153       825.44       648.84
 1154      825.801        650.2
 1155      826.161       651.26
 1156      826.522       652.64
 1157      826.882       653.66
 1158      827.242       653.16
 1159      827.603       652.02
 1160      827.963       651.36
 1161      828.323       651.02
 1162      828.682        650.7
 1163      829.042       650.62
 1164      829.402       651.08
 1165      829.761        651.2
 1166      830.121       650.36
 1167       830.48        649.9
 1168      830.839       649.88
 1169      831.198       649.48
 1170      831.557       649.28
 1171      831.916       649.64
 1172      832.275       649.64
 1173      832.634        649.7
 1174      832.992       649.64
 1175      833.351       649.16
 1176      833.709        648.7
 1177      834.067       648.32
 1178      834.425       648.04
 1179      834.783        648.6
 1180      835.141       649.44
 1181      835.499        649.9
 1182      835.857       650.42
 1183      836.214       651.14
 1184      836.572       651.82
 1185      836.929       652.04
 1186      837.286       652.02
 1187      837.644       651.96
 1188      838.001        651.4
 1189      838.357       650.46
 1190      838.714       649.92
 1191      839.071       650.24
 1192      839.428       651.04
 1193      839.784       651.78
 1194       840.14       652.28
 1195      840.497       652.88
 1196      840.853       653.02
 1197      841.209       652.44
 1198      841.565       651.88
 1199       841.92       651.78
 1200      842.276       651.88
 1201      842.632       651.92
 1202      842.987       651.66
 1203      843.343       651.32
 1204      843.698       650.66
 1205      844.053        649.4
 1206      844.408       648.32
 1207      844.763          648
 1208      845.118       647.92
 1209      845.472        647.9
 1210      845.827       648.18
 1211      846.181       648.66
 1212      846.536       649.34
 1213       846.89        649.6
 1214      847.244       649.48
 1215      847.598       649.26
 1216      847.952       649.06
 1217      848.306       648.46
 1218       848.66       647.96
 1219      849.013        647.8
 1220      849.367       647.64
 1221       849.72       647.22
 1222      850.073       646.92
 1223      850.427       646.58
 1224       850.78       646.72
 1225      851.133        647.6
 1226      851.485       648.84
 1227      851.838       650.08
 1228      852.191       651.28
 1229      852.543       651.46
 1230      852.896       651.18
 1231      853.248        650.9
 1232        853.6       650.88
 1233      853.952        650.7
 1234      854.304       650.72
 1235      854.656       650.28
 1236      855.007       649.52
 1237      855.359        648.6
 1238       855.71       648.02
 1239      856.062       647.76
 1240      856.413       647.94
 1241      856.764       648.44
 1242      857.115       649.08
 1243      857.466       649.88
 1244      857.817       650.62
 1245      858.168       650.92
 1246      858.518        650.8
 1247      858.869       650.82
 1248      859.219       650.76
 1249      859.569        650.8
 1250       859.92       651.32
 1251       860.27       651.58
 1252      860.619       651.04
 1253      860.969       650.36
 1254      861.319       649.84
 1255      861.669       649.42
 1256      862.018       649.24
 1257      862.367          649
 1258      862.717       648.76
 1259      863.066       648.44
 1260      863.415        648.3
 1261      863.764        648.4
 1262      864.112       648.86
 1263      864.461       649.12
 1264       864.81       649.36
 1265      865.158       649.76
 1266      865.507       650.28
 1267      865.855       650.56
 1268      866.203       651.14
 1269      866.551       651.66
 1270      866.899       651.42
 1271      867.247       650.96
 1272      867.594       650.46
 1273      867.942       649.62
 1274      868.289       648.98
 1275      868.637        648.6
 1276      868.984       648.26
 1277      869.331       648.12
 1278      869.678       648.34
 1279      870.025       648.68
 1280      870.372       649.24
 1281      870.718       649.82
 1282      871.065       650.28
 1283      871.411       650.54
 1284      871.758       650.52
 1285      872.104       650.32
 1286       872.45        650.3
 1287      872.796       650.82
 1288      873.142       651.58
 1289      873.488       652.02
 1290      873.833       652.38
 1291      874.179       652.58
 1292      874.524       652.46
 1293      874.869       651.94
 1294      875.215       651.44
 1295       875.56       651.26
 1296      875.905       651.38
 1297       876.25       651.62
 1298      876.594       651.58
 1299      876.939       651.42
 1300      877.283       651.24
 1301      877.628       650.68
 1302      877.972       649.82
 1303      878.316       649.16
 1304       878.66       648.86
 1305      879.004       648.72
 1306      879.348       648.88
 1307      879.692       648.88
 1308      880.035       649.14
 1309      880.379       649.28
 1310      880.722          649
 1311      881.066       648.54
 1312      881.409       648.18
 1313      881.752        647.7
 1314      882.095       647.42
 1315      882.438       647.42
 1316       882.78       647.36
 1317      883.123        647.1
 1318      883.465       647.52
 1319      883.808       648.64
 1320       884.15        649.5
 1321      884.492       650.32
 1322      884.834       651.44
 1323      885.176       651.82
 1324      885.518       651.64
 1325      885.859       651.62
 1326      886.201       651.32
 1327      886.542       650.62
 1328      886.884       650.18
 1329      887.225       649.44
 1330      887.566       648.54
 1331      887.907       647.94
 1332      888.248       647.64
 1333      888.589       647.22
 1334      888.929       646.76
 1335       889.27       646.42
 1336       889.61       646.72
 1337      889.951        647.1
 1338      890.291       647.34
 1339      890.631        647.9
 1340      890.971        648.5
 1341      891.311        648.7
 1342       891.65       649.56
 1343       891.99       650.78
 1344      892.329       651.96
 1345      892.669       652.36
 1346      893.008       652.16
 1347      893.347       651.42
 1348      893.686       650.38
 1349      894.025       649.08
 1350      894.364       648.44
 1351      894.703       648.54
 1352      895.041       649.34
 1353       895.38        650.8
 1354      895.718        652.4
 1355      896.056       653.48
 1356      896.395       654.06
 1357      896.733       653.58
 1358      897.071       652.14
 1359      897.408       650.74
 1360      897.746        650.4
 1361      898.084       650.14
 1362      898.421       649.88
 1363      898.758       649.96
 1364      899.095        650.3
 1365      899.433       650.54
 1366       899.77       651.06
 1367      900.106       652.04
 1368      900.443       652.88
 1369       900.78        653.4
 1370      901.116       653.24
 1371      901.453       652.42
 1372      901.789       650.64
 1373      902.125       648.94
 1374      902.461       647.46
 1375      902.797       646.44
 1376      903.133        645.8
 1377      903.469       646.12
 1378      903.804       646.98
 1379       904.14       647.98
 1380      904.475        648.9
 1381       904.81       650.16
 1382      905.146       651.42
 1383      905.481       652.12
 1384      905.815       652.16
 1385       906.15        652.2
 1386      906.485       652.08
 1387      906.819       651.52
 1388      907.154        651.2
 1389      907.488       650.98
 1390      907.822       650.18
 1391      908.156       649.04
 1392       908.49       647.98
 1393      908.824        646.9
 1394      909.158       646.56
 1395      909.492       647.02
 1396      909.825       647.66
 1397      910.159       648.74
 1398      910.492       649.94
 1399      910.825       650.42
 1400      911.158       650.22
 1401      911.491       649.56
 1402      911.824       648.38
 1403      912.157       647.58
 1404      912.489       647.62
 1405      912.822       648.46
 1406      913.154       650.02
 1407      913.486       651.92
 1408      913.818        653.2
 1409       914.15       653.72
 1410      914.482       653.68
 1411      914.814       653.52
 1412      915.146          653
 1413      915.477       652.44
 1414      915.809       652.44
 1415       916.14       652.44
 1416      916.471       652.16
 1417      916.802       652.12
 1418      917.133       652.04
 1419      917.464        651.3
 1420      917.795       650.66
 1421      918.125        650.4
 1422      918.456       649.88
 1423      918.786       649.42
 1424      919.116        649.6
 1425      919.446          650
 1426      919.776       650.06
 1427      920.106       649.94
 1428      920.436        649.6
 1429      920.766       648.94
 1430      921.095        648.4
 1431      921.425       648.42
 1432      921.754       648.72
 1433      922.083       649.12
 1434      922.412       649.64
 1435      922.741       649.94
 1436       923.07       649.78
 1437      923.399       649.28
 1438      923.727        648.7
 1439      924.056       647.68
 1440      924.384       646.34
 1441      924.713        645.3
 1442      925.041       645.24
 1443      925.369        644.9
 1444      925.697       644.58
 1445      926.024       645.42
 1446      926.352       646.74
 1447       926.68        647.9
 1448      927.007       649.74
 1449      927.334        651.4
 1450      927.662        651.4
 1451      927.989       650.36
 1452      928.316       648.84
 1453      928.643       647.48
 1454      928.969          647
 1455      929.296       647.28
 1456      929.622       647.72
 1457      929.949       648.56
 1458      930.275        649.6
 1459      930.601       650.28
 1460      930.927       651.02
 1461      931.253       651.84
 1462      931.579       652.56
 1463      931.905       652.52
 1464       932.23       651.86
 1465      932.556       650.82
 1466      932.881        649.6
 1467      933.206       648.46
 1468      933.531       647.84
 1469      933.856       647.54
 1470      934.181       647.56
 1471      934.506        647.9
 1472       934.83       648.16
 1473      935.155       648.34
 1474      935.479       648.82
 1475      935.803       649.26
 1476      936.128       649.76
 1477      936.452        650.3
 1478      936.775       651.18
 1479      937.099       651.62
 1480      937.423       651.48
 1481      937.746       651.08
 1482       938.07       650.42
 1483      938.393       649.44
 1484      938.716        648.9
 1485      939.039       648.58
 1486      939.362       648.46
 1487      939.685       648.76
 1488      940.008       648.82
 1489      940.331       648.72
 1490      940.653       649.02
 1491      940.975       649.16
 1492      941.298       649.26
 1493       941.62       649.94
 1494      941.942       650.82
 1495      942.264        651.6
 1496      942.585       652.44
 1497      942.907          653
 1498      943.229       653.18
 1499       943.55       653.26
 1500      943.871       653.24
 1501      944.192       653.02
 1502      944.513       652.56
 1503      944.834       652.04
 1504      945.155       651.76
 1505      945.476       651.76
 1506      945.796       651.64
 1507      946.117        651.7
 1508      946.437       651.62
 1509      946.757        651.1
 1510      947.078       650.64
 1511      947.398       650.48
 1512      947.717       650.38
 1513      948.037       650.12
 1514      948.357        649.9
 1515      948.676       649.66
 1516      948.996       649.46
 1517      949.315       648.86
 1518      949.634       648.48
 1519      949.953       648.12
 1520      950.272       647.52
 1521      950.591       647.54
 1522      950.909       648.06
 1523      951.228       648.54
 1524      951.546        649.1
 1525      951.865       649.68
 1526      952.183       649.88
 1527      952.501       650.08
 1528      952.819       650.36
 1529      953.137       650.62
 1530      953.454       650.82
 1531      953.772       650.74
 1532      954.089        650.7
 1533      954.407       650.56
 1534      954.724       650.12
 1535      955.041       649.48
 1536      955.358       649.26
 1537      955.675       649.44
 1538      955.992        649.5
 1539      956.308       649.72
 1540      956.625       650.34
 1541      956.941       650.62
 1542      957.257       650.52
 1543      957.574       650.38
 1544       957.89       650.18
 1545      958.206       650.14
 1546      958.521       650.12
 1547      958.837       649.68
 1548      959.152       649.42
 1549      959.468        649.6
 1550      959.783       649.82
 1551      960.098       649.56
 1552      960.413       649.28
 1553      960.728       648.94
 1554      961.043       648.32
 1555      961.358       648.02
 1556      961.672       648.24
 1557      961.987        648.5
 1558      962.301        649.1
 1559      962.615       649.78
 1560       962.93        649.7
 1561      963.244       649.22
 1562      963.557       648.78
 1563      963.871       648.02
 1564      964.185       647.24
 1565      964.498       646.74
 1566      964.812       646.78
 1567      965.125       647.34
 1568      965.438        647.9
 1569      965.751       648.38
 1570      966.064        648.3
 1571      966.377       647.66
 1572      966.689        646.7
 1573      967.002          646
 1574      967.314       645.56
 1575      967.626        645.3
 1576      967.939       645.46
 1577      968.251       645.74
 1578      968.563        646.2
 1579      968.874       646.72
 1580      969.186        647.4
 1581      969.498       647.82
 1582      969.809       648.24
 1583       970.12       648.14
 1584      970.431       647.54
 1585      970.743       647.34
 1586      971.053       647.78
 1587      971.364       648.68
 1588      971.675       649.84
 1589      971.986       650.84
 1590      972.296       651.44
 1591      972.606       651.82
 1592      972.917       651.48
 1593      973.227       650.92
 1594      973.537       650.68
 1595      973.847       650.46
 1596      974.156        649.6
 1597      974.466       648.82
 1598      974.775       648.54
 1599      975.085        648.7
 1600      975.394       649.16
 1601      975.703        650.1
 1602      976.012       651.14
 1603      976.321        651.8
 1604       976.63       651.88
 1605      976.938       651.12
 1606      977.247       650.08
 1607      977.555        649.6
 1608      977.863          649
 1609      978.172       648.14
 1610       978.48        647.7
 1611      978.787       647.52
 1612      979.095        646.6
 1613      979.403       645.76
 1614       979.71       645.92
 1615      980.018       646.84
 1616      980.325          648
 1617      980.632       649.32
 1618      980.939        650.6
 1619      981.246       651.46
 1620      981.553        651.5
 1621       981.86       651.18
 1622      982.166       650.78
 1623      982.473       650.08
 1624      982.779       648.96
 1625      983.085          648
 1626      983.391        647.7
 1627      983.697       647.66
 1628      984.003       647.64
 1629      984.309       647.76
 1630      984.614       648.26
 1631       984.92       648.54
 1632      985.225       649.04
 1633       985.53       649.96
 1634      985.835        650.7
 1635       986.14       651.12
 1636      986.445       650.96
 1637       986.75       650.36
 1638      987.054       649.84
 1639      987.359       649.78
 1640      987.663        649.5
 1641      987.967        649.5
 1642      988.271        649.9
 1643      988.575       650.18
 1644      988.879       650.36
 1645      989.183       650.54
 1646      989.487       650.34
 1647       989.79       649.68
 1648      990.093       649.24
 1649      990.397       648.74
 1650        990.7       648.26
 1651      991.003       647.86
 1652      991.306       647.38
 1653      991.608       646.98
 1654      991.911       646.72
 1655      992.213       646.92
 1656      992.516       647.74
 1657      992.818        648.8
 1658       993.12        649.7
 1659      993.422       650.46
 1660      993.724       650.88
 1661      994.026       651.06
 1662      994.327          651
 1663      994.629       650.56
 1664       994.93       650.16
 1665      995.232        649.9
 1666      995.533       649.36
 1667      995.834       648.82
 1668      996.135       648.58
 1669      996.435       648.34
 1670      996.736       647.94
 1671      997.036       647.68
 1672      997.337        647.9
 1673      997.637       648.02
 1674      997.937       648.18
 1675      998.237       648.46
 1676      998.537       649.22
 1677      998.837       650.06
 1678      999.137       650.68
 1679      999.436       650.86
 1680      999.735        650.6
 1681      1000.03       649.82
 1682      1000.33       648.84
 1683      1000.63       647.96
 1684      1000.93       647.56
 1685      1001.23       647.72
 1686      1001.53       647.78
 1687      1001.83        647.7
 1688      1002.13       647.98
 1689      1002.42       648.16
 1690      1002.72        648.1
 1691      1003.02       648.12
 1692      1003.32       648.26
 1693      1003.62        647.9
 1694      1003.91       647.56
 1695      1004.21       647.24
 1696      1004.51       646.78
 1697      1004.81       646.26
 1698       1005.1       646.32
 1699       1005.4       646.54
 1700       1005.7       646.96
 1701      1005.99       647.64
 1702      1006.29        648.2
 1703      1006.59       648.54
 1704      1006.88       648.98
 1705      1007.18       649.14
 1706      1007.48       648.54
 1707      1007.77       647.74
 1708      1008.07       647.36
 1709      1008.36       646.84
 1710      1008.66       646.82
 1711      1008.95       647.92
 1712      1009.25       649.06
 1713      1009.55       649.56
 1714      1009.84        650.1
 1715      1010.14       650.58
 1716      1010.43       650.84
 1717      1010.73       650.84
 1718      1011.02       650.52
 1719      1011.31       650.06
 1720      1011.61       649.58
 1721       1011.9       648.78
 1722       1012.2       648.42
 1723      1012.49        648.5
 1724      1012.79       648.62
 1725      1013.08       648.52
 1726      1013.37       648.86
 1727      1013.67       649.18
 1728      1013.96       649.56
 1729      1014.25       650.48
 1730      1014.55       651.32
 1731      1014.84       651.34
 1732      1015.13       651.52
 1733      1015.42       651.98
 1734      1015.72       651.74
 1735      1016.01       651.36
 1736       1016.3       651.08
 1737      1016.59       651.08
 1738      1016.89       650.98
 1739      1017.18        650.7
 1740      1017.47        650.5
 1741      1017.76       650.62
 1742      1018.05        650.2
 1743      1018.35       649.44
 1744      1018.64       649.16
 1745      1018.93       649.04
 1746      1019.22        648.9
 1747      1019.51       648.72
 1748       1019.8       648.46
 1749      1020.09       647.78
 1750      1020.38        647.2
 1751      1020.67       646.78
 1752      1020.96        646.6
 1753      1021.25       646.96
 1754      1021.54       647.92
 1755      1021.83       648.52
 1756      1022.12       648.52
 1757      1022.41       648.28
 1758       1022.7          648
 1759      1022.99       647.56
 1760      1023.28       647.72
 1761      1023.57       648.48
 1762      1023.86       649.38
 1763      1024.15       649.98
 1764      1024.44       650.36
 1765      1024.73        650.5
 1766      1025.02       650.32
 1767       1025.3       650.06
 1768      1025.59        649.9
 1769      1025.88       649.58
 1770      1026.17       648.86
 1771      1026.46       648.36
 1772      1026.74       648.24
 1773      1027.03       648.48
 1774      1027.32       648.94
 1775      1027.61        649.4
 1776      1027.89        649.7
 1777      1028.18       649.76
 1778      1028.47       649.48
 1779      1028.76       649.18
 1780      1029.04       649.22
 1781      1029.33       649.68
 1782      1029.62       650.24
 1783       1029.9       650.68
 1784      1030.19       650.96
 1785      1030.47       651.02
 1786      1030.76       650.58
 1787      1031.05       650.26
 1788      1031.33       650.26
 1789      1031.62       650.22
 1790       1031.9        650.2
 1791      1032.19       650.44
 1792      1032.47       650.22
 1793      1032.76       650.12
 1794      1033.04       649.96
 1795      1033.33       649.58
 1796      1033.61        649.3
 1797       1033.9       649.24
 1798      1034.18       648.88
 1799      1034.47       648.72
 1800      1034.75       648.54
 1801      1035.04       648.04
 1802      1035.32       647.88
 1803       1035.6       647.68
 1804      1035.89        647.6
 1805      1036.17       648.04
 1806      1036.45       648.84
 1807      1036.74       649.82
 1808      1037.02       650.74
 1809       1037.3       651.72
 1810      1037.59       652.38
 1811      1037.87       653.06
 1812      1038.15        652.9
 1813      1038.44        652.5
 1814      1038.72       652.26
 1815         1039        652.2
 1816      1039.28       651.44
 1817      1039.56        650.8
 1818      1039.85        650.7
 1819      1040.13       650.62
 1820      1040.41       650.12
 1821      1040.69       649.86
 1822      1040.97       649.76
 1823      1041.25       649.24
 1824      1041.54       648.36
 1825      1041.82       647.68
 1826       1042.1       647.36
 1827      1042.38        647.5
 1828      1042.66       647.44
 1829      1042.94       647.44
 1830      1043.22       648.24
 1831       1043.5       649.12
 1832      1043.78       649.28
 1833      1044.06        649.7
 1834      1044.34       650.18
 1835      1044.62       649.82
 1836       1044.9       649.76
 1837      1045.18       649.96
 1838      1045.46       650.02
 1839      1045.74       649.68
 1840      1046.02       649.18
 1841       1046.3       648.62
 1842      1046.58       648.64
 1843      1046.85       648.94
 1844      1047.13       649.38
 1845      1047.41       650.14
 1846      1047.69       650.24
 1847      1047.97       649.78
 1848      1048.25       649.28
 1849      1048.52          649
 1850       1048.8       648.76
 1851      1049.08       648.94
 1852      1049.36       649.44
 1853      1049.63       649.66
 1854      1049.91       649.64
 1855      1050.19        649.9
 1856      1050.47       650.36
 1857      1050.74        650.3
 1858      1051.02        650.3
 1859       1051.3       650.46
 1860      1051.57       650.78
 1861      1051.85       651.22
 1862      1052.13       651.88
 1863       1052.4       652.58
 1864      1052.68       653.04
 1865      1052.95       652.74
 1866      1053.23       651.96
 1867      1053.51          651
 1868      1053.78       650.18
 1869      1054.06       650.08
 1870      1054.33        650.7
 1871      1054.61       651.52
 1872      1054.88       652.18
 1873      1055.16       652.34
 1874      1055.43        651.7
 1875      1055.71       650.46
 1876      1055.98       649.28
 1877      1056.25       648.26
 1878      1056.53       647.56
 1879       1056.8       647.66
 1880      1057.08       648.24
 1881      1057.35       648.44
 1882      1057.62       648.58
 1883       1057.9        648.8
 1884      1058.17       648.78
 1885      1058.45       648.86
 1886      1058.72       648.84
 1887      1058.99        649.1
 1888      1059.26       649.54
 1889      1059.54       649.62
 1890      1059.81       649.46
 1891      1060.08       649.82
 1892      1060.35       650.08
 1893      1060.63       649.94
 1894       1060.9       649.88
 1895      1061.17       649.54
 1896      1061.44       648.82
 1897      1061.71        648.5
 1898      1061.99       649.04
 1899      1062.26       649.74
 1900      1062.53       650.08
 1901       1062.8        650.3
 1902      1063.07       650.04
 1903      1063.34        649.3
 1904      1063.61       648.56
 1905      1063.88       648.34
 1906      1064.15        648.4
 1907      1064.42        648.7
 1908       1064.7       648.88
 1909      1064.97          649
 1910      1065.24       649.46
 1911      1065.51       649.94
 1912      1065.78       650.32
 1913      1066.04       651.22
 1914      1066.31       652.14
 1915      1066.58       652.14
 1916      1066.85       651.74
 1917      1067.12       651.16
 1918      1067.39       650.16
 1919      1067.66       649.46
 1920      1067.93       649.58
 1921       1068.2       649.92
 1922      1068.47       650.08
 1923      1068.73       650.24
 1924         1069       650.24
 1925      1069.27       649.62
 1926      1069.54       649.18
 1927      1069.81        649.4
 1928      1070.07       649.64
 1929      1070.34       649.78
 1930      1070.61       650.36
 1931      1070.88       651.06
 1932      1071.14       651.54
 1933      1071.41        651.7
 1934      1071.68        651.5
 1935      1071.94       651.22
 1936      1072.21       650.76
 1937      1072.48        650.1
 1938      1072.74       649.68
 1939      1073.01        649.4
 1940      1073.28       649.42
 1941      1073.54       649.98
 1942      1073.81        650.6
 1943      1074.07       650.76
 1944      1074.34       650.98
 1945       1074.6        651.2
 1946      1074.87        650.8
 1947      1075.13       650.28
 1948       1075.4        650.3
 1949      1075.66       650.16
 1950      1075.93       649.66
 1951      1076.19       649.22
 1952      1076.46       649.12
 1953      1076.72       649.02
 1954      1076.99       648.94
 1955      1077.25       648.84
 1956      1077.52        648.8
 1957      1077.78       648.48
 1958      1078.04          648
 1959      1078.31       647.48
 1960      1078.57       647.06
 1961      1078.83       646.88
 1962       1079.1          647
 1963      1079.36        647.1
 1964      1079.62       647.28
 1965      1079.89       647.54
 1966      1080.15       647.98
 1967      1080.41        648.3
 1968      1080.67        648.8
 1969      1080.94       649.46
 1970       1081.2          650
 1971      1081.46       650.04
 1972      1081.72       649.98
 1973      1081.98       649.96
 1974      1082.24       649.98
 1975      1082.51        649.9
 1976      1082.77        649.6
 1977      1083.03       649.12
 1978      1083.29       648.62
 1979      1083.55       647.96
 1980      1083.81       647.66
 1981      1084.07       647.92
 1982      1084.33       648.58
 1983      1084.59       648.92
 1984      1084.85       649.48
 1985      1085.11       649.96
 1986      1085.37       650.02
 1987      1085.63       649.96
 1988      1085.89        650.1
 1989      1086.15       649.88
 1990      1086.41       649.14
 1991      1086.67       648.52
 1992      1086.93       648.12
 1993      1087.19       647.84
 1994      1087.45        648.3
 1995      1087.71       649.64
 1996      1087.97        650.7
 1997      1088.23        651.5
 1998      1088.48       652.16
 1999      1088.74       651.96
 2000         1089       651.12
 2001      1089.26       650.34
 2002      1089.52        649.4
 2003      1089.77       648.12
 2004      1090.03       647.34
 2005      1090.29       647.04
 2006      1090.55       646.48
 2007       1090.8       646.04
 2008      1091.06        646.5
 2009      1091.32       646.76
 2010      1091.57       646.54
 2011      1091.83       646.98
 2012      1092.09       647.74
 2013      1092.34       648.16
 2014       1092.6       648.58
 2015      1092.86       648.96
 2016      1093.11       649.44
 2017      1093.37       649.78
 2018      1093.62        649.7
 2019      1093.88       649.48
 2020      1094.13        649.7
 2021      1094.39       650.18
 2022      1094.65       650.32
 2023       1094.9       650.62
 2024      1095.16       651.28
 2025      1095.41       651.76
 2026      1095.66       651.42
 2027      1095.92       650.86
 2028      1096.17       650.12
 2029      1096.43       649.22
 2030      1096.68       648.68
 2031      1096.94        648.6
 2032      1097.19        648.7
 2033      1097.44       648.98
 2034       1097.7       649.16
 2035      1097.95       648.16
 2036       1098.2       646.96
 2037      1098.46        646.1
 2038      1098.71       645.24
 2039      1098.96       644.84
 2040      1099.22       645.62
 2041      1099.47       646.58
 2042      1099.72       647.38
 2043      1099.97       648.16
 2044      1100.23       648.74
 2045      1100.48       649.98
 2046      1100.73        650.2
 2047      1100.98      650.633
