scansci Spectrometer Data File
--- Measurement Setting ---
Type: Sample Spectrum
Date: Mon Oct 16 16:34:34 2023
User: (Reserved by scansci)
Serial: (Reserved by scansci)
Channel: No. 11
Integration Time: 1
Average: 10
Boxcar: 2
Electrical Dark: No-corrected
Time Normalize: (Reserved by scansci)
Dual-beam: (Reserved by scansci)
Reference Ch: (Reserved by scansci)
--- Measurement Data ---
Pixel   Wavelength   Intensity
    0        162.5      619.133
    1      162.985        619.5
    2      163.469       619.66
    3      163.954       620.66
    4      164.439        620.8
    5      164.923       620.06
    6      165.408       619.06
    7      165.892       618.42
    8      166.377       617.96
    9      166.861       617.42
   10      167.345       617.48
   11       167.83       618.08
   12      168.314       618.48
   13      168.798       618.24
   14      169.282       617.96
   15      169.766       617.66
   16       170.25       617.12
   17      170.734        616.4
   18      171.218       616.14
   19      171.702        616.4
   20      172.185        616.8
   21      172.669        617.6
   22      173.153       618.48
   23      173.636       619.28
   24       174.12       619.98
   25      174.603       620.76
   26      175.087        621.5
   27       175.57       622.04
   28      176.053       622.18
   29      176.537        622.1
   30       177.02       622.26
   31      177.503       622.46
   32      177.986       623.02
   33      178.469       624.14
   34      178.952        625.4
   35      179.435       626.82
   36      179.918        628.6
   37      180.401       630.02
   38      180.884       630.46
   39      181.366        630.7
   40      181.849       630.36
   41      182.332       629.24
   42      182.814       628.28
   43      183.297       627.78
   44      183.779       627.26
   45      184.262       627.16
   46      184.744       627.14
   47      185.226       626.94
   48      185.708       627.14
   49      186.191       627.54
   50      186.673       627.66
   51      187.155        628.2
   52      187.637       629.04
   53      188.119       629.52
   54        188.6        629.9
   55      189.082       630.26
   56      189.564       630.42
   57      190.046       630.26
   58      190.527        630.3
   59      191.009       630.66
   60      191.491       630.82
   61      191.972       630.62
   62      192.454       630.66
   63      192.935       630.98
   64      193.416       631.52
   65      193.897       631.84
   66      194.379       632.04
   67       194.86        632.3
   68      195.341        632.3
   69      195.822       632.12
   70      196.303       632.64
   71      196.784       633.14
   72      197.265       633.14
   73      197.746          633
   74      198.226       632.54
   75      198.707          632
   76      199.188       632.46
   77      199.668       633.26
   78      200.149       633.34
   79      200.629       633.44
   80       201.11       633.24
   81       201.59        632.5
   82       202.07       632.02
   83       202.55       632.32
   84      203.031        632.4
   85      203.511       632.56
   86      203.991       632.54
   87      204.471       632.26
   88      204.951       631.94
   89      205.431       631.98
   90       205.91        632.3
   91       206.39       632.52
   92       206.87       632.26
   93      207.349       631.76
   94      207.829        631.6
   95      208.309       631.12
   96      208.788        630.6
   97      209.267        630.5
   98      209.747       630.58
   99      210.226       630.06
  100      210.705       629.64
  101      211.185       629.02
  102      211.664       628.04
  103      212.143       627.08
  104      212.622        626.3
  105      213.101       626.08
  106      213.579       626.38
  107      214.058       626.68
  108      214.537        627.1
  109      215.016       628.02
  110      215.494       628.66
  111      215.973        629.1
  112      216.452       629.84
  113       216.93       630.82
  114      217.408       631.08
  115      217.887        630.7
  116      218.365       629.98
  117      218.843       629.18
  118      219.321       628.12
  119      219.799       627.64
  120      220.278       627.88
  121      220.755        628.5
  122      221.233       628.86
  123      221.711       629.14
  124      222.189       629.66
  125      222.667        629.7
  126      223.144        629.4
  127      223.622       629.64
  128        224.1       629.82
  129      224.577       629.08
  130      225.055        628.2
  131      225.532       627.88
  132      226.009       627.08
  133      226.486       626.26
  134      226.964       625.94
  135      227.441       626.38
  136      227.918       626.88
  137      228.395       627.72
  138      228.872       628.54
  139      229.349       629.46
  140      229.826        629.9
  141      230.302        630.3
  142      230.779       630.72
  143      231.256       630.72
  144      231.732        629.9
  145      232.209       628.78
  146      232.685       627.62
  147      233.162       626.38
  148      233.638       625.62
  149      234.114       625.64
  150       234.59       626.24
  151      235.066       626.56
  152      235.543       627.14
  153      236.019        627.8
  154      236.495       627.82
  155       236.97        627.4
  156      237.446       627.26
  157      237.922       627.34
  158      238.398       627.26
  159      238.873        627.6
  160      239.349       628.22
  161      239.824       628.42
  162        240.3          628
  163      240.775       627.82
  164      241.251       627.68
  165      241.726       627.64
  166      242.201       627.92
  167      242.676       628.34
  168      243.151       628.88
  169      243.626        629.5
  170      244.101       629.74
  171      244.576       629.28
  172      245.051       628.68
  173      245.526       628.08
  174          246        627.3
  175      246.475       626.46
  176       246.95       626.26
  177      247.424       627.14
  178      247.899       628.12
  179      248.373        628.8
  180      248.847       629.36
  181      249.321        629.7
  182      249.796       629.26
  183       250.27       628.46
  184      250.744       627.76
  185      251.218       627.28
  186      251.692       627.34
  187      252.166       627.34
  188      252.639       627.14
  189      253.113       627.02
  190      253.587       626.98
  191       254.06       626.14
  192      254.534       625.32
  193      255.007          625
  194      255.481       625.04
  195      255.954       625.06
  196      256.427       625.28
  197      256.901       625.28
  198      257.374        625.1
  199      257.847       625.14
  200       258.32       624.82
  201      258.793       624.42
  202      259.266       624.36
  203      259.739       624.52
  204      260.211       624.14
  205      260.684       624.12
  206      261.157       624.46
  207      261.629       625.02
  208      262.102       625.48
  209      262.574       626.08
  210      263.046        626.6
  211      263.519        626.7
  212      263.991        626.3
  213      264.463       625.88
  214      264.935       625.36
  215      265.407       624.96
  216      265.879        625.2
  217      266.351        625.7
  218      266.823        625.8
  219      267.295       625.92
  220      267.766        626.2
  221      268.238       626.26
  222       268.71       626.38
  223      269.181        627.1
  224      269.653       627.68
  225      270.124       627.66
  226      270.595        627.5
  227      271.066       626.88
  228      271.538       625.64
  229      272.009       624.64
  230       272.48       623.66
  231      272.951        622.4
  232      273.422       622.06
  233      273.892       622.32
  234      274.363       622.14
  235      274.834        622.5
  236      275.305       623.86
  237      275.775       624.84
  238      276.246       625.06
  239      276.716       625.48
  240      277.186       625.94
  241      277.657       626.06
  242      278.127       625.64
  243      278.597        625.2
  244      279.067       624.88
  245      279.537       624.12
  246      280.007        622.9
  247      280.477       622.24
  248      280.947        622.4
  249      281.417       622.82
  250      281.886       623.34
  251      282.356       623.86
  252      282.825       624.16
  253      283.295       624.14
  254      283.764          624
  255      284.234       623.94
  256      284.703       624.04
  257      285.172          624
  258      285.641       623.54
  259       286.11        622.9
  260      286.579       622.88
  261      287.048       623.04
  262      287.517       623.28
  263      287.986       623.16
  264      288.454        622.6
  265      288.923        621.4
  266      289.392       620.18
  267       289.86        619.1
  268      290.329       619.12
  269      290.797       619.84
  270      291.265       620.68
  271      291.734        621.5
  272      292.202        622.5
  273       292.67        623.3
  274      293.138       623.82
  275      293.606       624.24
  276      294.074       624.54
  277      294.541       624.78
  278      295.009       625.28
  279      295.477       625.96
  280      295.944       626.24
  281      296.412       626.28
  282      296.879        626.1
  283      297.347       625.62
  284      297.814        625.1
  285      298.281       624.76
  286      298.749       624.38
  287      299.216       623.58
  288      299.683        622.2
  289       300.15       620.64
  290      300.616        619.7
  291      301.083          620
  292       301.55       621.42
  293      302.017       623.02
  294      302.483       624.38
  295       302.95       625.12
  296      303.416       625.26
  297      303.883        625.1
  298      304.349       624.86
  299      304.815        624.4
  300      305.281       624.08
  301      305.748        623.2
  302      306.214       621.66
  303       306.68       620.76
  304      307.146       621.02
  305      307.611        621.8
  306      308.077       622.52
  307      308.543       623.26
  308      309.008       623.54
  309      309.474       623.34
  310      309.939       622.64
  311      310.405       621.86
  312       310.87        621.4
  313      311.335       621.02
  314        311.8       620.62
  315      312.266        620.5
  316      312.731       621.08
  317      313.196       621.94
  318       313.66          623
  319      314.125       624.04
  320       314.59       624.72
  321      315.055       625.14
  322      315.519       625.04
  323      315.984       624.82
  324      316.448       624.88
  325      316.913        625.2
  326      317.377       625.42
  327      317.841        625.9
  328      318.305       626.26
  329      318.769          626
  330      319.233       625.44
  331      319.697       624.94
  332      320.161       624.28
  333      320.625       623.52
  334      321.089       622.92
  335      321.552       622.82
  336      322.016          623
  337      322.479       623.18
  338      322.943       623.74
  339      323.406       624.24
  340      323.869       623.96
  341      324.333       623.46
  342      324.796       623.02
  343      325.259        622.4
  344      325.722        622.2
  345      326.185       622.66
  346      326.647       623.22
  347       327.11       623.82
  348      327.573       624.58
  349      328.035       624.94
  350      328.498       624.62
  351       328.96       623.74
  352      329.423       623.28
  353      329.885       623.02
  354      330.347        622.3
  355       330.81       621.94
  356      331.272        622.2
  357      331.734       622.22
  358      332.196       621.86
  359      332.657       621.96
  360      333.119       622.22
  361      333.581       622.42
  362      334.043        622.5
  363      334.504        622.5
  364      334.966       622.74
  365      335.427       622.74
  366      335.888       622.26
  367       336.35       622.06
  368      336.811        622.1
  369      337.272        621.9
  370      337.733       621.64
  371      338.194       621.38
  372      338.655       620.88
  373      339.115       620.32
  374      339.576       619.96
  375      340.037       620.42
  376      340.497       620.92
  377      340.958        620.9
  378      341.418       620.94
  379      341.879       621.36
  380      342.339       621.58
  381      342.799       622.34
  382      343.259        623.8
  383      343.719       625.14
  384      344.179       625.82
  385      344.639       625.94
  386      345.099       625.76
  387      345.559       625.14
  388      346.018       624.08
  389      346.478       622.82
  390      346.937       621.82
  391      347.397        621.3
  392      347.856        620.7
  393      348.315        620.4
  394      348.774       620.46
  395      349.234       620.52
  396      349.693       620.28
  397      350.152       620.12
  398       350.61       620.22
  399      351.069        620.2
  400      351.528       619.76
  401      351.987       619.32
  402      352.445        619.6
  403      352.904       620.06
  404      353.362       620.36
  405       353.82       620.92
  406      354.279        621.3
  407      354.737       620.42
  408      355.195       619.34
  409      355.653       619.16
  410      356.111       618.96
  411      356.569       618.64
  412      357.027       618.72
  413      357.484        618.5
  414      357.942        617.9
  415      358.399        617.5
  416      358.857       617.32
  417      359.314       617.44
  418      359.772       617.62
  419      360.229       617.34
  420      360.686       616.96
  421      361.143       616.96
  422        361.6       617.66
  423      362.057       618.66
  424      362.514       619.46
  425      362.971       619.92
  426      363.427       620.06
  427      363.884       620.04
  428       364.34       619.98
  429      364.797       620.06
  430      365.253       620.54
  431      365.709       620.94
  432      366.166       620.56
  433      366.622       619.98
  434      367.078       619.92
  435      367.534        619.6
  436       367.99       619.26
  437      368.445       619.54
  438      368.901       620.18
  439      369.357        620.3
  440      369.812       620.14
  441      370.268       619.48
  442      370.723       618.28
  443      371.179        617.3
  444      371.634       617.04
  445      372.089       617.24
  446      372.544        617.5
  447      372.999       617.74
  448      373.454       617.58
  449      373.909       616.76
  450      374.364       615.48
  451      374.818       614.56
  452      375.273       614.04
  453      375.727       613.94
  454      376.182       614.86
  455      376.636        616.4
  456       377.09       617.58
  457      377.545       618.26
  458      377.999       618.42
  459      378.453       618.22
  460      378.907       617.72
  461      379.361       617.58
  462      379.814       617.82
  463      380.268        618.3
  464      380.722        618.5
  465      381.175        618.5
  466      381.629       618.58
  467      382.082       618.84
  468      382.535       618.84
  469      382.989       618.68
  470      383.442       618.94
  471      383.895       619.28
  472      384.348       619.06
  473      384.801       618.46
  474      385.253       618.44
  475      385.706       618.32
  476      386.159        617.7
  477      386.611       617.16
  478      387.064       616.94
  479      387.516        616.1
  480      387.968       615.28
  481      388.421       615.26
  482      388.873       615.78
  483      389.325        616.6
  484      389.777       617.68
  485      390.229       618.86
  486      390.681        619.3
  487      391.132        619.1
  488      391.584       618.74
  489      392.035       618.36
  490      392.487       618.14
  491      392.938       618.32
  492       393.39       618.78
  493      393.841       619.42
  494      394.292        619.7
  495      394.743       619.42
  496      395.194        618.9
  497      395.645        618.3
  498      396.096       617.68
  499      396.546       617.62
  500      396.997       617.94
  501      397.448       618.74
  502      397.898       619.84
  503      398.349        620.9
  504      398.799       621.92
  505      399.249       622.66
  506      399.699       622.82
  507      400.149       622.72
  508      400.599       622.38
  509      401.049       621.92
  510      401.499       621.86
  511      401.949       621.84
  512      402.398       622.06
  513      402.848       622.54
  514      403.297       622.76
  515      403.747        622.8
  516      404.196          623
  517      404.645       622.92
  518      405.094       622.76
  519      405.543       622.68
  520      405.992        622.5
  521      406.441       622.72
  522       406.89       623.58
  523      407.339       624.64
  524      407.787       626.24
  525      408.236       628.04
  526      408.684       629.48
  527      409.132       630.96
  528      409.581        632.7
  529      410.029       633.76
  530      410.477       635.04
  531      410.925       637.44
  532      411.373       639.84
  533      411.821       642.26
  534      412.269       645.82
  535      412.716       649.56
  536      413.164          652
  537      413.611       654.36
  538      414.059       657.02
  539      414.506          659
  540      414.953        660.1
  541        415.4        661.8
  542      415.847       663.62
  543      416.294       664.94
  544      416.741          666
  545      417.188       667.42
  546      417.635       668.38
  547      418.081       669.26
  548      418.528       669.96
  549      418.974       670.48
  550      419.421        670.8
  551      419.867       670.88
  552      420.313        671.4
  553      420.759       672.86
  554      421.205        675.4
  555      421.651       678.82
  556      422.097       683.04
  557      422.543       687.18
  558      422.989       691.12
  559      423.434       695.98
  560       423.88        701.8
  561      424.325        708.5
  562       424.77       716.12
  563      425.216       724.98
  564      425.661       735.52
  565      426.106       748.06
  566      426.551       762.82
  567      426.996       779.76
  568       427.44       799.02
  569      427.885       819.82
  570       428.33       842.26
  571      428.774        867.4
  572      429.219       895.12
  573      429.663       923.32
  574      430.107       951.52
  575      430.551       978.22
  576      430.996      1000.54
  577       431.44      1017.72
  578      431.883      1030.94
  579      432.327      1039.56
  580      432.771      1042.66
  581      433.215      1040.64
  582      433.658      1034.12
  583      434.102      1024.08
  584      434.545      1010.48
  585      434.988       995.42
  586      435.431       980.34
  587      435.875       965.48
  588      436.318       951.68
  589      436.761       939.94
  590      437.203       930.36
  591      437.646       922.94
  592      438.089       917.84
  593      438.531       914.22
  594      438.974       912.28
  595      439.416       912.66
  596      439.859       915.86
  597      440.301       921.52
  598      440.743       930.12
  599      441.185       942.74
  600      441.627       958.92
  601      442.069       978.56
  602       442.51       1002.2
  603      442.952      1030.06
  604      443.394       1064.2
  605      443.835      1107.88
  606      444.277         1163
  607      444.718      1233.14
  608      445.159       1322.7
  609        445.6      1434.14
  610      446.041       1566.2
  611      446.482       1717.8
  612      446.923      1887.06
  613      447.364      2063.14
  614      447.804       2227.8
  615      448.245       2368.9
  616      448.685      2472.34
  617      449.126      2521.62
  618      449.566      2513.86
  619      450.006      2455.78
  620      450.447       2352.7
  621      450.887      2216.68
  622      451.326      2064.18
  623      451.766      1905.44
  624      452.206      1749.62
  625      452.646      1605.32
  626      453.085      1476.86
  627      453.525      1365.24
  628      453.964       1270.7
  629      454.403      1191.16
  630      454.843      1125.06
  631      455.282      1071.36
  632      455.721      1027.64
  633       456.16       992.32
  634      456.599       963.86
  635      457.037       941.34
  636      457.476       923.38
  637      457.915       909.26
  638      458.353       899.18
  639      458.791       894.88
  640       459.23       894.82
  641      459.668       898.78
  642      460.106       909.58
  643      460.544       929.54
  644      460.982       960.06
  645       461.42      1005.68
  646      461.857      1072.16
  647      462.295      1165.58
  648      462.733      1288.44
  649       463.17      1434.74
  650      463.607       1592.6
  651      464.045      1744.36
  652      464.482      1864.36
  653      464.919       1928.3
  654      465.356      1924.28
  655      465.793      1853.72
  656       466.23      1728.16
  657      466.666      1567.68
  658      467.103      1395.74
  659      467.539      1232.26
  660      467.976      1089.34
  661      468.412       971.42
  662      468.848       878.66
  663      469.284        809.1
  664       469.72       758.76
  665      470.156       722.66
  666      470.592       697.08
  667      471.028        678.9
  668      471.464       665.98
  669      471.899       657.06
  670      472.335       650.74
  671       472.77        646.5
  672      473.205       644.22
  673      473.641        642.2
  674      474.076       639.74
  675      474.511        637.4
  676      474.946       634.96
  677       475.38       632.14
  678      475.815          630
  679       476.25       629.22
  680      476.684        629.5
  681      477.119       630.06
  682      477.553        630.7
  683      477.987       630.94
  684      478.421       630.28
  685      478.856       628.96
  686      479.289       627.72
  687      479.723       625.94
  688      480.157        624.2
  689      480.591       623.28
  690      481.024        623.1
  691      481.458       622.52
  692      481.891        622.4
  693      482.324       622.96
  694      482.758       623.24
  695      483.191       623.18
  696      483.624       623.58
  697      484.057        624.2
  698      484.489       624.28
  699      484.922       624.56
  700      485.355       625.02
  701      485.787        625.2
  702       486.22       625.58
  703      486.652       626.36
  704      487.084          627
  705      487.516        627.3
  706      487.948       627.44
  707       488.38       627.02
  708      488.812       625.98
  709      489.244       624.62
  710      489.676       623.38
  711      490.107       623.26
  712      490.539        624.2
  713       490.97       625.92
  714      491.401       627.84
  715      491.832       629.22
  716      492.263       629.44
  717      492.694       628.44
  718      493.125       626.52
  719      493.556       624.62
  720      493.987       623.24
  721      494.417       622.76
  722      494.848       623.24
  723      495.278       623.76
  724      495.708       623.98
  725      496.139        624.2
  726      496.569       623.86
  727      496.999        623.1
  728      497.429       622.86
  729      497.858       623.08
  730      498.288       623.12
  731      498.718       623.16
  732      499.147       623.14
  733      499.577       622.86
  734      500.006       622.46
  735      500.435       622.48
  736      500.864       622.52
  737      501.293       622.12
  738      501.722        621.9
  739      502.151       622.12
  740       502.58        622.4
  741      503.008       622.72
  742      503.437       623.38
  743      503.865       624.12
  744      504.293        624.4
  745      504.722        624.3
  746       505.15       624.32
  747      505.578        624.2
  748      506.006       623.76
  749      506.434       623.44
  750      506.861       623.38
  751      507.289       622.94
  752      507.716        622.6
  753      508.144       623.02
  754      508.571       623.88
  755      508.998       624.96
  756      509.425       626.16
  757      509.852       627.52
  758      510.279       628.08
  759      510.706        627.9
  760      511.133       627.22
  761       511.56       626.28
  762      511.986       625.34
  763      512.412       624.56
  764      512.839       623.76
  765      513.265       623.32
  766      513.691        623.6
  767      514.117        624.2
  768      514.543          625
  769      514.969       626.02
  770      515.395       626.84
  771       515.82       627.22
  772      516.246       627.34
  773      516.671       627.74
  774      517.096       627.98
  775      517.522       627.72
  776      517.947       627.22
  777      518.372       626.76
  778      518.797       626.08
  779      519.222        625.7
  780      519.646       625.74
  781      520.071        625.6
  782      520.495       625.62
  783       520.92       625.94
  784      521.344       626.14
  785      521.768       626.06
  786      522.192       626.24
  787      522.616          626
  788       523.04       625.18
  789      523.464       624.32
  790      523.888       624.04
  791      524.311       624.36
  792      524.735       625.04
  793      525.158          626
  794      525.581       626.98
  795      526.005        627.7
  796      526.428       628.18
  797      526.851       628.16
  798      527.274       627.98
  799      527.696        628.1
  800      528.119       627.96
  801      528.542       627.36
  802      528.964       626.74
  803      529.386       626.26
  804      529.809       625.76
  805      530.231       625.16
  806      530.653       624.74
  807      531.075       624.78
  808      531.497       624.94
  809      531.918       624.92
  810       532.34       624.76
  811      532.761       624.66
  812      533.183        624.9
  813      533.604        624.8
  814      534.025       624.36
  815      534.447       624.42
  816      534.868       624.54
  817      535.289       624.56
  818      535.709       624.72
  819       536.13       624.86
  820      536.551       625.36
  821      536.971       625.98
  822      537.392       626.42
  823      537.812        627.1
  824      538.232       627.98
  825      538.652       628.66
  826      539.072        629.1
  827      539.492       628.64
  828      539.912        627.5
  829      540.331       626.56
  830      540.751       625.42
  831       541.17       624.72
  832       541.59       624.36
  833      542.009       624.12
  834      542.428       623.94
  835      542.847          624
  836      543.266       624.04
  837      543.685       624.32
  838      544.104       625.04
  839      544.522       625.56
  840      544.941       626.16
  841      545.359        627.3
  842      545.778       628.36
  843      546.196       628.78
  844      546.614       629.44
  845      547.032        629.8
  846       547.45       629.16
  847      547.867       628.08
  848      548.285       627.18
  849      548.703        626.4
  850       549.12       625.98
  851      549.538       625.82
  852      549.955       625.94
  853      550.372       626.16
  854      550.789       625.92
  855      551.206       625.26
  856      551.623       624.68
  857      552.039       624.84
  858      552.456       625.54
  859      552.873        626.3
  860      553.289       627.02
  861      553.705        627.5
  862      554.121       627.44
  863      554.537       627.22
  864      554.953        627.4
  865      555.369       628.04
  866      555.785        628.8
  867      556.201        629.6
  868      556.616       629.88
  869      557.032       629.72
  870      557.447       629.16
  871      557.862       628.84
  872      558.277       628.98
  873      558.692       629.26
  874      559.107        629.1
  875      559.522        629.5
  876      559.937        629.9
  877      560.351       630.08
  878      560.766       630.66
  879       561.18          631
  880      561.595       630.36
  881      562.009       629.48
  882      562.423        628.4
  883      562.837       627.18
  884       563.25       626.84
  885      563.664       627.06
  886      564.078       627.26
  887      564.491       627.62
  888      564.905        628.5
  889      565.318       629.76
  890      565.731       630.66
  891      566.144       631.68
  892      566.557       632.56
  893       566.97       632.68
  894      567.383        632.5
  895      567.795       632.36
  896      568.208        631.6
  897       568.62        631.1
  898      569.033       631.58
  899      569.445        631.6
  900      569.857       631.02
  901      570.269        630.7
  902      570.681       630.26
  903      571.093       629.28
  904      571.504       629.22
  905      571.916       630.32
  906      572.327       631.08
  907      572.739        631.4
  908       573.15        631.8
  909      573.561       631.96
  910      573.972       631.78
  911      574.383          632
  912      574.794       632.46
  913      575.204       632.66
  914      575.615        632.3
  915      576.025       632.04
  916      576.436       632.06
  917      576.846       632.36
  918      577.256       632.84
  919      577.666       633.74
  920      578.076       634.86
  921      578.486       635.94
  922      578.896       636.64
  923      579.305       636.74
  924      579.715       636.58
  925      580.124       635.88
  926      580.533       634.96
  927      580.942       634.94
  928      581.351        635.9
  929       581.76        636.6
  930      582.169       637.64
  931      582.578       639.34
  932      582.986       640.28
  933      583.395       640.28
  934      583.803       640.26
  935      584.212       639.92
  936       584.62       639.14
  937      585.028       638.76
  938      585.436       639.06
  939      585.843       639.92
  940      586.251        641.2
  941      586.659        642.4
  942      587.066       642.98
  943      587.474       643.06
  944      587.881       643.18
  945      588.288       643.18
  946      588.695       643.22
  947      589.102       643.44
  948      589.509        643.7
  949      589.915       643.88
  950      590.322       644.24
  951      590.728       645.32
  952      591.135        647.3
  953      591.541       649.78
  954      591.947       651.86
  955      592.353       653.84
  956      592.759        655.5
  957      593.165       656.64
  958      593.571        657.5
  959      593.976       658.88
  960      594.382       660.72
  961      594.787       662.52
  962      595.192       664.22
  963      595.597       665.72
  964      596.002        667.2
  965      596.407       668.62
  966      596.812       670.74
  967      597.217        673.4
  968      597.621       676.74
  969      598.026       680.62
  970       598.43       684.62
  971      598.834       688.44
  972      599.238       692.84
  973      599.642        697.9
  974      600.046       703.62
  975       600.45       709.78
  976      600.854       715.72
  977      601.257       721.68
  978      601.661       728.84
  979      602.064        736.9
  980      602.467       745.72
  981       602.87       755.94
  982      603.273        767.3
  983      603.676       779.34
  984      604.079       792.86
  985      604.481       808.32
  986      604.884       824.94
  987      605.286       842.94
  988      605.689          863
  989      606.091       885.14
  990      606.493        910.9
  991      606.895       940.92
  992      607.297       974.14
  993      607.698       1010.3
  994        608.1      1049.94
  995      608.501      1092.62
  996      608.903      1140.68
  997      609.304       1195.7
  998      609.705      1257.14
  999      610.106      1325.98
 1000      610.507      1402.52
 1001      610.908      1485.62
 1002      611.308      1577.82
 1003      611.709       1678.2
 1004      612.109      1786.36
 1005       612.51      1907.84
 1006       612.91         2043
 1007       613.31       2188.6
 1008       613.71      2348.46
 1009       614.11      2520.78
 1010       614.51      2700.58
 1011      614.909       2893.2
 1012      615.309      3096.38
 1013      615.708      3303.82
 1014      616.108      3518.76
 1015      616.507      3735.86
 1016      616.906      3940.74
 1017      617.305       4138.2
 1018      617.704       4329.3
 1019      618.102      4506.82
 1020      618.501      4671.48
 1021      618.899      4827.36
 1022      619.298       4968.7
 1023      619.696      5090.24
 1024      620.094      5192.86
 1025      620.492      5279.64
 1026       620.89      5350.82
 1027      621.288      5400.78
 1028      621.686      5434.26
 1029      622.083      5458.28
 1030       622.48      5469.46
 1031      622.878       5467.8
 1032      623.275      5458.66
 1033      623.672      5442.86
 1034      624.069      5418.64
 1035      624.466       5390.2
 1036      624.863      5357.34
 1037      625.259       5318.6
 1038      625.656      5273.24
 1039      626.052      5219.98
 1040      626.448      5157.68
 1041      626.844      5094.18
 1042      627.241      5037.44
 1043      627.636       4986.6
 1044      628.032      4942.96
 1045      628.428      4913.56
 1046      628.823      4889.66
 1047      629.219      4858.48
 1048      629.614      4831.24
 1049      630.009      4806.88
 1050      630.404      4771.96
 1051      630.799      4728.44
 1052      631.194      4685.38
 1053      631.589      4639.42
 1054      631.984       4591.6
 1055      632.378      4548.58
 1056      632.772      4511.28
 1057      633.167      4474.56
 1058      633.561      4436.66
 1059      633.955      4397.54
 1060      634.349      4354.36
 1061      634.743       4312.1
 1062      635.136      4277.12
 1063       635.53      4244.66
 1064      635.923      4212.94
 1065      636.316      4187.24
 1066       636.71      4165.12
 1067      637.103      4140.82
 1068      637.496      4115.54
 1069      637.888      4086.02
 1070      638.281      4045.82
 1071      638.674      3997.82
 1072      639.066       3952.9
 1073      639.459      3912.38
 1074      639.851      3874.82
 1075      640.243      3839.34
 1076      640.635       3799.4
 1077      641.027      3754.66
 1078      641.419      3708.04
 1079       641.81      3665.34
 1080      642.202      3628.62
 1081      642.593      3597.42
 1082      642.984       3565.5
 1083      643.375      3528.66
 1084      643.766      3486.64
 1085      644.157       3445.6
 1086      644.548      3410.54
 1087      644.939      3380.56
 1088      645.329      3351.02
 1089       645.72      3320.18
 1090       646.11      3284.34
 1091        646.5       3242.3
 1092       646.89      3195.94
 1093       647.28       3151.2
 1094       647.67      3110.36
 1095       648.06      3071.52
 1096      648.449      3030.16
 1097      648.839      2987.82
 1098      649.228      2944.78
 1099      649.617         2901
 1100      650.007      2858.14
 1101      650.396      2816.46
 1102      650.784      2776.38
 1103      651.173       2738.4
 1104      651.562      2700.62
 1105       651.95      2663.76
 1106      652.339      2629.96
 1107      652.727      2597.82
 1108      653.115      2570.88
 1109      653.503      2548.98
 1110      653.891      2531.14
 1111      654.279      2518.74
 1112      654.666      2512.02
 1113      655.054      2507.32
 1114      655.441      2503.38
 1115      655.828      2500.58
 1116      656.216       2499.9
 1117      656.603       2499.2
 1118      656.989      2495.72
 1119      657.376       2490.8
 1120      657.763      2484.56
 1121      658.149       2476.7
 1122      658.536      2465.16
 1123      658.922      2451.78
 1124      659.308       2436.7
 1125      659.694      2418.38
 1126       660.08      2397.44
 1127      660.466       2376.1
 1128      660.852      2353.22
 1129      661.237       2329.2
 1130      661.623      2306.52
 1131      662.008      2283.96
 1132      662.393      2261.82
 1133      662.778      2239.66
 1134      663.163      2218.18
 1135      663.548      2198.62
 1136      663.933      2180.54
 1137      664.317      2163.28
 1138      664.702      2146.04
 1139      665.086      2128.08
 1140       665.47      2107.68
 1141      665.854      2086.06
 1142      666.238       2064.2
 1143      666.622       2042.7
 1144      667.006      2021.24
 1145      667.389      2000.58
 1146      667.773       1980.3
 1147      668.156      1959.54
 1148      668.539      1939.76
 1149      668.923      1922.36
 1150      669.305      1906.58
 1151      669.688      1890.02
 1152      670.071      1873.84
 1153      670.454      1859.48
 1154      670.836      1844.66
 1155      671.218         1829
 1156      671.601       1813.5
 1157      671.983       1798.5
 1158      672.365      1782.68
 1159      672.747      1766.46
 1160      673.128      1750.48
 1161       673.51      1735.46
 1162      673.891      1720.66
 1163      674.273      1705.88
 1164      674.654      1692.22
 1165      675.035         1678
 1166      675.416       1662.1
 1167      675.797      1645.14
 1168      676.177      1628.88
 1169      676.558      1613.32
 1170      676.938      1598.16
 1171      677.319      1584.68
 1172      677.699       1572.8
 1173      678.079      1560.32
 1174      678.459      1545.52
 1175      678.839       1529.8
 1176      679.219      1515.28
 1177      679.598      1502.14
 1178      679.978      1489.36
 1179      680.357      1477.14
 1180      680.736      1464.92
 1181      681.115       1450.7
 1182      681.494       1436.1
 1183      681.873      1423.28
 1184      682.252      1411.26
 1185       682.63      1399.74
 1186      683.009         1389
 1187      683.387      1377.32
 1188      683.765         1364
 1189      684.143      1351.42
 1190      684.521      1340.52
 1191      684.899      1329.34
 1192      685.277      1318.28
 1193      685.654      1309.22
 1194      686.032       1300.3
 1195      686.409      1289.76
 1196      686.786      1279.68
 1197      687.163      1269.94
 1198       687.54      1258.76
 1199      687.917      1247.96
 1200      688.294      1239.04
 1201       688.67      1230.94
 1202      689.046      1222.32
 1203      689.423      1213.62
 1204      689.799       1204.5
 1205      690.175      1194.96
 1206      690.551      1185.96
 1207      690.927      1177.92
 1208      691.302      1169.48
 1209      691.678      1161.16
 1210      692.053      1153.54
 1211      692.428      1145.86
 1212      692.804      1138.24
 1213      693.179      1131.72
 1214      693.553       1125.9
 1215      693.928       1119.8
 1216      694.303      1113.38
 1217      694.677      1107.16
 1218      695.052       1100.9
 1219      695.426       1094.6
 1220        695.8      1088.38
 1221      696.174       1082.4
 1222      696.548      1075.54
 1223      696.921      1067.52
 1224      697.295      1058.52
 1225      697.669      1049.84
 1226      698.042      1041.54
 1227      698.415      1034.74
 1228      698.788      1030.08
 1229      699.161      1026.42
 1230      699.534      1021.98
 1231      699.907      1017.12
 1232      700.279      1011.82
 1233      700.652      1005.34
 1234      701.024       998.58
 1235      701.396       992.36
 1236      701.768        986.4
 1237       702.14       980.34
 1238      702.512       974.16
 1239      702.883       967.82
 1240      703.255       961.82
 1241      703.626       956.44
 1242      703.998       952.06
 1243      704.369        948.9
 1244       704.74        946.1
 1245      705.111        942.7
 1246      705.481        938.8
 1247      705.852       934.02
 1248      706.222       928.78
 1249      706.593          924
 1250      706.963       919.56
 1251      707.333       915.02
 1252      707.703       910.54
 1253      708.073       906.06
 1254      708.442       901.06
 1255      708.812       895.72
 1256      709.181       891.26
 1257      709.551       887.52
 1258       709.92       883.14
 1259      710.289          879
 1260      710.658        875.9
 1261      711.027       872.54
 1262      711.395       869.08
 1263      711.764       866.32
 1264      712.132       863.42
 1265        712.5       860.62
 1266      712.869       857.94
 1267      713.236       854.68
 1268      713.604       850.72
 1269      713.972       846.52
 1270       714.34       841.84
 1271      714.707       836.98
 1272      715.074       832.86
 1273      715.442       829.92
 1274      715.809        827.9
 1275      716.176       825.98
 1276      716.542       823.68
 1277      716.909       820.68
 1278      717.276        817.3
 1279      717.642       813.66
 1280      718.008       809.92
 1281      718.374       807.32
 1282       718.74       805.56
 1283      719.106       803.64
 1284      719.472       801.28
 1285      719.838       799.16
 1286      720.203       796.34
 1287      720.568       793.16
 1288      720.934       790.32
 1289      721.299       787.54
 1290      721.664       784.42
 1291      722.029       781.16
 1292      722.393       777.94
 1293      722.758        774.9
 1294      723.122       772.32
 1295      723.486       770.22
 1296      723.851       768.66
 1297      724.215       767.14
 1298      724.578       764.76
 1299      724.942       762.22
 1300      725.306        759.8
 1301      725.669       756.96
 1302      726.033       754.48
 1303      726.396       752.28
 1304      726.759       749.32
 1305      727.122       745.86
 1306      727.485        742.6
 1307      727.847       739.28
 1308       728.21       736.76
 1309      728.572        735.6
 1310      728.935        735.1
 1311      729.297       734.74
 1312      729.659       733.92
 1313      730.021       732.26
 1314      730.382          730
 1315      730.744       727.16
 1316      731.105        723.8
 1317      731.467       720.38
 1318      731.828       717.78
 1319      732.189       715.92
 1320       732.55       714.28
 1321      732.911       713.48
 1322      733.271       713.36
 1323      733.632        713.2
 1324      733.992       712.36
 1325      734.352       711.22
 1326      734.713        709.7
 1327      735.072       707.66
 1328      735.432       705.44
 1329      735.792       703.86
 1330      736.152       702.88
 1331      736.511       701.32
 1332       736.87        699.3
 1333      737.229       697.44
 1334      737.589       695.02
 1335      737.947        692.3
 1336      738.306        690.8
 1337      738.665       690.42
 1338      739.023       690.08
 1339      739.382       689.52
 1340       739.74       688.76
 1341      740.098       687.94
 1342      740.456       686.72
 1343      740.814       685.12
 1344      741.171       683.42
 1345      741.529       681.98
 1346      741.886       680.46
 1347      742.244       678.92
 1348      742.601       677.36
 1349      742.958       676.14
 1350      743.314        675.5
 1351      743.671       674.52
 1352      744.028       673.36
 1353      744.384       672.76
 1354       744.74       672.66
 1355      745.097       672.58
 1356      745.453        672.4
 1357      745.809       672.16
 1358      746.164        671.2
 1359       746.52       670.12
 1360      746.875        668.6
 1361      747.231       666.86
 1362      747.586       665.62
 1363      747.941          665
 1364      748.296        664.3
 1365      748.651       664.14
 1366      749.005        664.7
 1367       749.36        665.2
 1368      749.714       665.14
 1369      750.069       664.56
 1370      750.423       663.98
 1371      750.777       663.52
 1372       751.13       663.12
 1373      751.484       662.94
 1374      751.838       663.32
 1375      752.191       663.92
 1376      752.544        664.2
 1377      752.897       664.12
 1378       753.25       663.98
 1379      753.603       663.76
 1380      753.956        662.8
 1381      754.309       661.72
 1382      754.661       661.02
 1383      755.013       660.38
 1384      755.365       660.08
 1385      755.717        659.9
 1386      756.069       659.46
 1387      756.421          659
 1388      756.773       658.78
 1389      757.124        658.5
 1390      757.476       658.78
 1391      757.827       658.68
 1392      758.178       657.78
 1393      758.529       656.66
 1394      758.879       655.28
 1395       759.23       653.14
 1396      759.581       651.38
 1397      759.931       650.18
 1398      760.281       649.18
 1399      760.631        648.2
 1400      760.981        647.7
 1401      761.331       647.36
 1402      761.681        646.6
 1403       762.03       646.22
 1404      762.379       645.92
 1405      762.729       644.88
 1406      763.078       643.52
 1407      763.427       642.62
 1408      763.776       641.88
 1409      764.124       641.22
 1410      764.473        640.9
 1411      764.821       640.72
 1412      765.169       640.36
 1413      765.517       639.62
 1414      765.865        638.8
 1415      766.213       637.76
 1416      766.561        636.8
 1417      766.909       635.84
 1418      767.256       634.36
 1419      767.603        633.4
 1420       767.95       633.72
 1421      768.297       634.38
 1422      768.644       634.78
 1423      768.991        635.2
 1424      769.337       634.64
 1425      769.684       632.68
 1426       770.03        630.6
 1427      770.376       628.92
 1428      770.722       627.98
 1429      771.068       627.54
 1430      771.414       627.52
 1431      771.759       627.44
 1432      772.105        627.6
 1433       772.45        627.3
 1434      772.795       626.66
 1435       773.14       626.26
 1436      773.485       625.82
 1437       773.83       625.16
 1438      774.174       625.08
 1439      774.519       625.98
 1440      774.863       626.88
 1441      775.207       627.56
 1442      775.551       627.56
 1443      775.895        626.9
 1444      776.239       626.12
 1445      776.582       625.14
 1446      776.926       624.24
 1447      777.269       623.92
 1448      777.612       623.72
 1449      777.955       622.96
 1450      778.298       622.24
 1451      778.641        622.3
 1452      778.983       622.94
 1453      779.326       623.66
 1454      779.668       624.38
 1455       780.01        624.8
 1456      780.352       624.48
 1457      780.694       623.96
 1458      781.036       623.56
 1459      781.377        623.3
 1460      781.719       623.16
 1461       782.06       623.32
 1462      782.401       623.28
 1463      782.742        622.7
 1464      783.083       621.74
 1465      783.424       621.02
 1466      783.764        620.1
 1467      784.105       619.12
 1468      784.445       618.72
 1469      784.785       618.66
 1470      785.125       618.72
 1471      785.465       619.06
 1472      785.805       619.58
 1473      786.144       620.06
 1474      786.484       620.56
 1475      786.823       620.64
 1476      787.162       620.38
 1477      787.501       620.02
 1478       787.84       619.46
 1479      788.178       618.92
 1480      788.517       619.24
 1481      788.855       620.26
 1482      789.194        620.9
 1483      789.532       621.62
 1484       789.87       621.94
 1485      790.208        621.2
 1486      790.545       619.78
 1487      790.883       618.48
 1488       791.22       617.12
 1489      791.557        616.2
 1490      791.894       616.22
 1491      792.231       617.12
 1492      792.568       618.66
 1493      792.905       619.86
 1494      793.241       621.34
 1495      793.578       622.66
 1496      793.914        622.7
 1497       794.25          622
 1498      794.586        621.4
 1499      794.922       620.08
 1500      795.257       618.58
 1501      795.593       618.08
 1502      795.928       617.88
 1503      796.263       617.66
 1504      796.598       617.68
 1505      796.933       617.34
 1506      797.268       616.82
 1507      797.603       616.76
 1508      797.937       616.92
 1509      798.271       616.98
 1510      798.606        617.1
 1511       798.94       617.06
 1512      799.274       616.98
 1513      799.607       617.12
 1514      799.941        617.3
 1515      800.274       617.34
 1516      800.608       617.18
 1517      800.941       616.98
 1518      801.274       616.94
 1519      801.607       616.94
 1520      801.939       616.62
 1521      802.272        615.9
 1522      802.604       614.76
 1523      802.936       613.58
 1524      803.269       613.38
 1525      803.601       613.94
 1526      803.932       614.82
 1527      804.264       615.86
 1528      804.596        616.7
 1529      804.927       617.14
 1530      805.258       618.04
 1531      805.589        618.8
 1532       805.92       619.12
 1533      806.251       619.62
 1534      806.582        619.7
 1535      806.912       619.72
 1536      807.242       620.12
 1537      807.573       620.44
 1538      807.903        620.1
 1539      808.232       619.74
 1540      808.562          619
 1541      808.892       618.22
 1542      809.221       617.72
 1543      809.551       617.42
 1544       809.88        617.5
 1545      810.209       617.48
 1546      810.538       617.06
 1547      810.866          617
 1548      811.195        617.3
 1549      811.523       617.06
 1550      811.851       616.94
 1551       812.18       616.84
 1552      812.507       616.48
 1553      812.835       616.32
 1554      813.163        616.4
 1555       813.49       616.26
 1556      813.818       616.12
 1557      814.145       616.08
 1558      814.472       615.68
 1559      814.799       614.64
 1560      815.126       613.72
 1561      815.452       613.38
 1562      815.779       612.82
 1563      816.105        612.2
 1564      816.431       612.24
 1565      816.757        612.3
 1566      817.083       612.06
 1567      817.409       612.38
 1568      817.734       612.98
 1569       818.06        613.5
 1570      818.385       613.96
 1571       818.71       614.64
 1572      819.035       614.86
 1573       819.36       614.76
 1574      819.685       614.56
 1575      820.009       614.36
 1576      820.333       614.08
 1577      820.658       613.56
 1578      820.982       612.74
 1579      821.305       611.88
 1580      821.629       611.38
 1581      821.953        610.8
 1582      822.276       610.68
 1583        822.6        611.3
 1584      822.923        611.8
 1585      823.246       612.34
 1586      823.569       613.64
 1587      823.891       615.06
 1588      824.214       615.92
 1589      824.536        616.6
 1590      824.858       616.72
 1591       825.18       616.16
 1592      825.502       615.42
 1593      825.824       614.66
 1594      826.146          614
 1595      826.467        613.6
 1596      826.789       613.16
 1597       827.11       612.88
 1598      827.431        613.1
 1599      827.752       613.52
 1600      828.072       613.78
 1601      828.393       614.34
 1602      828.713       614.86
 1603      829.034       614.88
 1604      829.354       615.04
 1605      829.674       615.26
 1606      829.993        614.9
 1607      830.313       613.84
 1608      830.633       613.14
 1609      830.952       612.44
 1610      831.271       611.46
 1611       831.59       610.48
 1612      831.909        610.1
 1613      832.228       610.22
 1614      832.546       610.66
 1615      832.865       611.28
 1616      833.183       611.96
 1617      833.501       612.64
 1618      833.819       612.78
 1619      834.137       612.58
 1620      834.455       612.36
 1621      834.772        612.5
 1622      835.089       612.52
 1623      835.407       612.52
 1624      835.724        612.2
 1625       836.04       611.96
 1626      836.357       611.86
 1627      836.674       612.26
 1628       836.99        612.7
 1629      837.306       612.88
 1630      837.623       612.66
 1631      837.939       611.96
 1632      838.254       610.56
 1633       838.57        609.5
 1634      838.886       609.32
 1635      839.201       609.78
 1636      839.516        610.3
 1637      839.831        610.7
 1638      840.146       610.48
 1639      840.461       610.54
 1640      840.775       611.34
 1641       841.09        612.1
 1642      841.404       612.88
 1643      841.718        613.6
 1644      842.032       613.56
 1645      842.346       612.68
 1646      842.659       612.08
 1647      842.973       611.66
 1648      843.286        611.6
 1649      843.599       611.16
 1650      843.912       610.12
 1651      844.225       609.62
 1652      844.538        610.2
 1653      844.851       611.06
 1654      845.163       612.16
 1655      845.475       613.66
 1656      845.787       614.58
 1657      846.099       614.54
 1658      846.411       613.58
 1659      846.723       612.54
 1660      847.034       612.22
 1661      847.345        611.9
 1662      847.657        611.2
 1663      847.968       611.06
 1664      848.278        611.4
 1665      848.589        611.3
 1666        848.9       611.38
 1667       849.21       611.96
 1668       849.52       611.98
 1669       849.83        611.9
 1670       850.14       611.94
 1671       850.45       611.56
 1672      850.759       610.86
 1673      851.069       610.58
 1674      851.378       610.46
 1675      851.687       610.08
 1676      851.996       610.08
 1677      852.305       610.88
 1678      852.614       612.02
 1679      852.922       612.94
 1680       853.23       613.84
 1681      853.539       614.58
 1682      853.847        614.6
 1683      854.154       614.36
 1684      854.462          614
 1685       854.77       613.52
 1686      855.077       612.86
 1687      855.384       612.28
 1688      855.691       611.86
 1689      855.998       611.74
 1690      856.305       611.58
 1691      856.612       612.08
 1692      856.918       613.08
 1693      857.224       613.76
 1694       857.53       613.92
 1695      857.836       613.86
 1696      858.142       613.24
 1697      858.448       612.34
 1698      858.753       611.22
 1699      859.059       610.28
 1700      859.364        610.2
 1701      859.669        610.2
 1702      859.974       609.84
 1703      860.278       609.96
 1704      860.583       610.64
 1705      860.887       611.06
 1706      861.192       611.08
 1707      861.496       611.02
 1708        861.8       610.76
 1709      862.103       610.48
 1710      862.407       610.52
 1711       862.71       610.96
 1712      863.014       611.54
 1713      863.317       611.84
 1714       863.62       611.76
 1715      863.922       611.54
 1716      864.225       611.18
 1717      864.527       610.84
 1718       864.83       611.12
 1719      865.132        611.2
 1720      865.434       610.56
 1721      865.736       610.08
 1722      866.037        610.2
 1723      866.339       610.76
 1724       866.64       611.48
 1725      866.941        612.3
 1726      867.242       612.44
 1727      867.543       612.04
 1728      867.844       611.44
 1729      868.145       611.48
 1730      868.445       612.08
 1731      868.745       613.52
 1732      869.045       614.74
 1733      869.345       615.06
 1734      869.645       614.72
 1735      869.944        613.8
 1736      870.244        612.4
 1737      870.543       611.72
 1738      870.842       611.62
 1739      871.141       611.52
 1740       871.44       611.76
 1741      871.739       612.56
 1742      872.037       613.22
 1743      872.335       613.26
 1744      872.634       613.32
 1745      872.931       613.76
 1746      873.229       614.04
 1747      873.527       614.14
 1748      873.824          615
 1749      874.122       615.92
 1750      874.419        615.9
 1751      874.716       615.16
 1752      875.013        614.5
 1753      875.309       613.74
 1754      875.606       612.74
 1755      875.902       611.98
 1756      876.199        611.7
 1757      876.495       611.46
 1758       876.79       611.58
 1759      877.086       612.12
 1760      877.382       612.84
 1761      877.677       613.58
 1762      877.972       613.96
 1763      878.267        613.5
 1764      878.562       612.84
 1765      878.857        612.2
 1766      879.152       611.64
 1767      879.446       611.28
 1768       879.74       611.14
 1769      880.034        610.9
 1770      880.328       610.56
 1771      880.622       610.44
 1772      880.916       610.34
 1773      881.209        610.3
 1774      881.502          610
 1775      881.795       609.56
 1776      882.088       609.14
 1777      882.381       608.96
 1778      882.674       608.84
 1779      882.966       608.88
 1780      883.258        609.3
 1781      883.551        609.8
 1782      883.843        610.3
 1783      884.134       610.94
 1784      884.426       611.74
 1785      884.717       612.44
 1786      885.009       612.72
 1787        885.3        612.4
 1788      885.591       611.58
 1789      885.882        611.2
 1790      886.172       611.22
 1791      886.463       611.38
 1792      886.753       611.54
 1793      887.043       611.66
 1794      887.333        611.6
 1795      887.623       611.34
 1796      887.913       611.14
 1797      888.202       611.08
 1798      888.492       611.26
 1799      888.781       611.48
 1800       889.07       611.84
 1801      889.359       612.22
 1802      889.647       612.62
 1803      889.936       613.66
 1804      890.224       615.06
 1805      890.512        616.1
 1806        890.8        616.5
 1807      891.088       616.72
 1808      891.376       616.14
 1809      891.663       614.76
 1810      891.951       613.48
 1811      892.238       612.74
 1812      892.525       612.32
 1813      892.812       612.22
 1814      893.099       612.36
 1815      893.385       612.62
 1816      893.671       613.02
 1817      893.958       613.42
 1818      894.244       613.34
 1819       894.53       612.62
 1820      894.815       611.54
 1821      895.101       610.52
 1822      895.386       609.46
 1823      895.671          609
 1824      895.956       609.08
 1825      896.241        609.3
 1826      896.526       610.12
 1827       896.81        611.2
 1828      897.095       611.68
 1829      897.379       612.24
 1830      897.663        613.1
 1831      897.947          613
 1832      898.231       612.34
 1833      898.514       612.28
 1834      898.798       612.78
 1835      899.081       612.92
 1836      899.364        612.6
 1837      899.647       611.92
 1838      899.929        611.1
 1839      900.212       610.22
 1840      900.494       609.62
 1841      900.776        610.1
 1842      901.058       611.66
 1843       901.34       613.14
 1844      901.622       614.24
 1845      901.904          615
 1846      902.185       614.78
 1847      902.466        614.5
 1848      902.747        614.6
 1849      903.028       613.76
 1850      903.309        612.4
 1851      903.589       611.72
 1852       903.87       610.86
 1853       904.15       609.44
 1854       904.43       608.64
 1855       904.71       608.36
 1856      904.989       607.78
 1857      905.269       607.42
 1858      905.548        607.5
 1859      905.827       608.14
 1860      906.106       609.56
 1861      906.385        611.5
 1862      906.664       613.06
 1863      906.942       614.36
 1864      907.221       615.32
 1865      907.499       615.66
 1866      907.777       615.56
 1867      908.055       615.36
 1868      908.332       615.04
 1869       908.61       614.82
 1870      908.887       614.34
 1871      909.164       613.64
 1872      909.441       613.28
 1873      909.718        613.2
 1874      909.995       612.78
 1875      910.271       612.62
 1876      910.548       613.06
 1877      910.824       613.42
 1878        911.1        613.5
 1879      911.375       613.88
 1880      911.651       614.76
 1881      911.927        615.2
 1882      912.202       615.08
 1883      912.477       614.62
 1884      912.752       613.94
 1885      913.027       612.64
 1886      913.301        611.2
 1887      913.576       609.88
 1888       913.85       608.98
 1889      914.124       608.16
 1890      914.398       607.88
 1891      914.672       607.96
 1892      914.945        608.5
 1893      915.219       610.14
 1894      915.492       611.96
 1895      915.765        612.7
 1896      916.038       613.08
 1897      916.311       613.16
 1898      916.583       612.34
 1899      916.856        611.1
 1900      917.128        610.6
 1901        917.4       610.44
 1902      917.672       610.12
 1903      917.944       609.58
 1904      918.215       609.48
 1905      918.486       609.24
 1906      918.758       608.48
 1907      919.029       607.94
 1908      919.299       607.76
 1909       919.57       607.62
 1910      919.841        608.2
 1911      920.111       609.26
 1912      920.381       609.84
 1913      920.651       610.22
 1914      920.921       610.52
 1915      921.191       610.06
 1916       921.46       609.12
 1917      921.729       608.82
 1918      921.999       609.14
 1919      922.268        609.4
 1920      922.536       609.58
 1921      922.805          610
 1922      923.073       609.94
 1923      923.342       609.12
 1924       923.61       608.22
 1925      923.878       607.38
 1926      924.145       607.16
 1927      924.413        608.3
 1928       924.68       609.44
 1929      924.948       610.18
 1930      925.215        610.7
 1931      925.482       610.62
 1932      925.748       610.18
 1933      926.015       610.08
 1934      926.281        610.1
 1935      926.547       610.18
 1936      926.813       610.34
 1937      927.079       610.24
 1938      927.345       610.44
 1939       927.61       611.24
 1940      927.876       612.12
 1941      928.141       612.86
 1942      928.406       613.18
 1943      928.671       612.54
 1944      928.935       611.36
 1945        929.2       610.74
 1946      929.464       610.52
 1947      929.728       610.32
 1948      929.992       610.64
 1949      930.256        611.5
 1950       930.52       611.96
 1951      930.783       612.04
 1952      931.046        612.4
 1953      931.309       612.88
 1954      931.572       612.86
 1955      931.835        612.5
 1956      932.097        612.1
 1957       932.36       611.04
 1958      932.622       610.34
 1959      932.884       610.76
 1960      933.146       611.36
 1961      933.408       611.66
 1962      933.669       612.02
 1963       933.93       611.54
 1964      934.192       610.08
 1965      934.453       609.08
 1966      934.713       608.58
 1967      934.974       608.48
 1968      935.234       609.26
 1969      935.495        610.1
 1970      935.755       610.54
 1971      936.015       610.82
 1972      936.274       610.78
 1973      936.534       609.74
 1974      936.793       608.76
 1975      937.053       608.02
 1976      937.312       607.36
 1977      937.571        607.5
 1978      937.829       608.04
 1979      938.088        608.2
 1980      938.346       608.82
 1981      938.604        609.9
 1982      938.862       609.86
 1983       939.12       609.88
 1984      939.378        610.4
 1985      939.635       610.62
 1986      939.893        610.9
 1987       940.15          612
 1988      940.407        612.7
 1989      940.663       613.42
 1990       940.92       614.04
 1991      941.176        613.8
 1992      941.433        613.3
 1993      941.689       613.38
 1994      941.944       612.62
 1995        942.2       611.64
 1996      942.456       611.28
 1997      942.711       611.04
 1998      942.966       610.72
 1999      943.221       611.42
 2000      943.476       612.48
 2001      943.731       613.26
 2002      943.985       613.72
 2003      944.239       613.42
 2004      944.493       612.72
 2005      944.747       612.12
 2006      945.001       611.56
 2007      945.255          611
 2008      945.508       610.48
 2009      945.761       609.98
 2010      946.014          609
 2011      946.267       608.04
 2012       946.52        607.5
 2013      946.772       607.72
 2014      947.025       608.32
 2015      947.277       609.54
 2016      947.529        610.9
 2017      947.781        611.9
 2018      948.032       612.56
 2019      948.284       612.92
 2020      948.535       612.96
 2021      948.786       612.86
 2022      949.037       612.66
 2023      949.288       612.28
 2024      949.538        611.8
 2025      949.789       611.68
 2026      950.039       611.44
 2027      950.289       611.34
 2028      950.539       611.38
 2029      950.788        611.1
 2030      951.038        610.3
 2031      951.287       609.92
 2032      951.536       609.62
 2033      951.785       609.38
 2034      952.034       609.26
 2035      952.282       609.28
 2036      952.531        608.9
 2037      952.779       608.62
 2038      953.027       608.58
 2039      953.275        608.5
 2040      953.523        608.2
 2041       953.77        608.3
 2042      954.017       608.58
 2043      954.264       609.28
 2044      954.511        610.7
 2045      954.758       611.84
 2046      955.005        612.6
 2047      955.251      613.533
