scansci Spectrometer Data File
--- Measurement Setting ---
Type: Sample Spectrum
Date: Mon Oct 16 16:47:01 2023
User: (Reserved by scansci)
Serial: (Reserved by scansci)
Channel: No. 11
Integration Time: 1
Average: 10
Boxcar: 2
Electrical Dark: No-corrected
Time Normalize: (Reserved by scansci)
Dual-beam: (Reserved by scansci)
Reference Ch: (Reserved by scansci)
--- Measurement Data ---
Pixel   Wavelength   Intensity
    0        344.4      706.567
    1      344.867      706.375
    2      345.334       706.58
    3      345.801        706.7
    4      346.268       706.58
    5      346.735       706.52
    6      347.202       706.46
    7      347.669       705.92
    8      348.135       705.94
    9      348.602        706.5
   10      349.068       707.24
   11      349.535       707.48
   12      350.001       707.56
   13      350.467       707.42
   14      350.933       707.48
   15      351.399       707.12
   16      351.866       706.92
   17      352.331       706.86
   18      352.797       706.26
   19      353.263       705.02
   20      353.729        704.2
   21      354.194       704.26
   22       354.66       704.68
   23      355.126       705.22
   24      355.591       705.92
   25      356.056        706.6
   26      356.522       706.74
   27      356.987       706.72
   28      357.452       706.52
   29      357.917       705.94
   30      358.382       705.58
   31      358.847       705.28
   32      359.312       704.46
   33      359.776       703.84
   34      360.241        703.9
   35      360.706       703.68
   36       361.17       703.72
   37      361.634       704.32
   38      362.099       704.94
   39      362.563       705.32
   40      363.027       705.74
   41      363.491        706.1
   42      363.955       706.54
   43      364.419       706.94
   44      364.883       707.06
   45      365.347       706.94
   46      365.811       706.14
   47      366.274       704.96
   48      366.738       704.24
   49      367.201       703.84
   50      367.665       703.44
   51      368.128       703.86
   52      368.592        704.6
   53      369.055       704.32
   54      369.518       703.62
   55      369.981       703.26
   56      370.444       702.88
   57      370.907       702.28
   58       371.37       702.48
   59      371.832       703.26
   60      372.295       703.58
   61      372.757       703.46
   62       373.22       703.72
   63      373.682        704.3
   64      374.145       704.76
   65      374.607        705.4
   66      375.069       706.68
   67      375.531       707.46
   68      375.993       707.44
   69      376.455       707.22
   70      376.917       707.16
   71      377.379        706.5
   72      377.841       706.32
   73      378.302       706.64
   74      378.764       706.68
   75      379.225       706.66
   76      379.687        706.7
   77      380.148       706.54
   78      380.609       705.98
   79      381.071       705.44
   80      381.532       704.88
   81      381.993       704.28
   82      382.454       703.32
   83      382.915       702.76
   84      383.375       702.98
   85      383.836       703.32
   86      384.297        703.8
   87      384.757       704.74
   88      385.218       705.84
   89      385.678       706.56
   90      386.138       707.14
   91      386.599       707.62
   92      387.059       707.82
   93      387.519       707.42
   94      387.979       706.64
   95      388.439       705.78
   96      388.899       705.08
   97      389.358       704.44
   98      389.818       704.06
   99      390.278       703.86
  100      390.737       703.52
  101      391.197       703.42
  102      391.656        703.4
  103      392.115       703.56
  104      392.575       704.04
  105      393.034        704.8
  106      393.493       705.12
  107      393.952        705.3
  108      394.411          705
  109       394.87        704.4
  110      395.328          704
  111      395.787       703.52
  112      396.246       703.24
  113      396.704       703.42
  114      397.163       703.76
  115      397.621       704.14
  116      398.079       705.32
  117      398.537       706.44
  118      398.995       706.96
  119      399.454       706.98
  120      399.911        706.6
  121      400.369        705.8
  122      400.827        705.5
  123      401.285       705.88
  124      401.743       706.56
  125        402.2       706.94
  126      402.658          707
  127      403.115       706.54
  128      403.572        705.7
  129       404.03       704.84
  130      404.487        704.5
  131      404.944       704.34
  132      405.401       704.16
  133      405.858        704.1
  134      406.315       704.26
  135      406.771       704.32
  136      407.228       704.44
  137      407.685       704.68
  138      408.141       704.66
  139      408.598       704.48
  140      409.054       704.58
  141       409.51       704.62
  142      409.967        704.1
  143      410.423       703.36
  144      410.879       702.66
  145      411.335        701.6
  146      411.791       700.72
  147      412.246        700.6
  148      412.702       700.88
  149      413.158       701.76
  150      413.613        703.2
  151      414.069        704.6
  152      414.524       705.66
  153       414.98       706.68
  154      415.435       706.72
  155       415.89       705.72
  156      416.345        704.9
  157        416.8       704.16
  158      417.255       703.14
  159       417.71        702.6
  160      418.165       702.54
  161      418.619        702.2
  162      419.074       702.22
  163      419.529        702.8
  164      419.983        703.3
  165      420.437       703.86
  166      420.892       704.04
  167      421.346          704
  168        421.8       704.28
  169      422.254       704.62
  170      422.708       705.08
  171      423.162       705.44
  172      423.616       705.38
  173       424.07       705.44
  174      424.523       705.56
  175      424.977       705.72
  176       425.43       706.42
  177      425.884       707.12
  178      426.337       706.64
  179       426.79       705.88
  180      427.243       704.96
  181      427.697       703.78
  182       428.15       702.88
  183      428.602       702.78
  184      429.055        702.8
  185      429.508        702.4
  186      429.961       701.96
  187      430.413       702.08
  188      430.866       702.26
  189      431.318       702.32
  190      431.771       703.04
  191      432.223       703.98
  192      432.675       705.02
  193      433.127        705.9
  194      433.579        706.6
  195      434.031        706.9
  196      434.483       707.34
  197      434.935       707.12
  198      435.387       706.58
  199      435.838        706.1
  200       436.29       705.72
  201      436.741       705.14
  202      437.193       704.46
  203      437.644       704.16
  204      438.095        704.6
  205      438.546       704.86
  206      438.997        704.5
  207      439.448       704.18
  208      439.899       703.44
  209       440.35       702.08
  210      440.801       701.22
  211      441.251        701.2
  212      441.702       701.28
  213      442.152        702.2
  214      442.603       703.76
  215      443.053       704.52
  216      443.503       704.94
  217      443.954       705.68
  218      444.404        705.9
  219      444.854        705.8
  220      445.304       706.54
  221      445.753       707.58
  222      446.203       708.34
  223      446.653       708.68
  224      447.102       708.68
  225      447.552       708.32
  226      448.001        707.7
  227      448.451       706.94
  228        448.9       706.58
  229      449.349       706.96
  230      449.798       707.76
  231      450.247       707.78
  232      450.696       707.26
  233      451.145       706.66
  234      451.594       705.38
  235      452.042       703.68
  236      452.491       702.78
  237      452.939        702.2
  238      453.388       701.74
  239      453.836       701.92
  240      454.285       702.66
  241      454.733        703.8
  242      455.181        705.5
  243      455.629       707.12
  244      456.077        707.9
  245      456.525        707.9
  246      456.972       707.34
  247       457.42       706.36
  248      457.868       705.28
  249      458.315       704.18
  250      458.763       703.54
  251       459.21       703.28
  252      459.657       703.56
  253      460.104       704.34
  254      460.552       705.34
  255      460.999       705.74
  256      461.446       705.86
  257      461.892       705.66
  258      462.339       705.12
  259      462.786       704.58
  260      463.233       704.14
  261      463.679       703.86
  262      464.125       703.24
  263      464.572       702.52
  264      465.018       702.06
  265      465.464        701.5
  266       465.91        701.1
  267      466.356        701.7
  268      466.802       702.62
  269      467.248       703.18
  270      467.694       704.14
  271       468.14       704.72
  272      468.585       704.32
  273      469.031       703.84
  274      469.476       703.72
  275      469.922          704
  276      470.367       704.62
  277      470.812       705.22
  278      471.257       705.64
  279      471.702       706.18
  280      472.147        706.4
  281      472.592       706.24
  282      473.037       705.82
  283      473.482       705.54
  284      473.926        705.3
  285      474.371       704.84
  286      474.815       704.26
  287      475.259       703.82
  288      475.704        703.3
  289      476.148       702.54
  290      476.592       702.42
  291      477.036       702.58
  292       477.48        702.7
  293      477.924        702.9
  294      478.368       703.52
  295      478.811       703.98
  296      479.255       704.26
  297      479.698       704.88
  298      480.142       705.28
  299      480.585        705.5
  300      481.028       705.26
  301      481.472       705.06
  302      481.915        704.8
  303      482.358       704.74
  304      482.801        704.3
  305      483.244          704
  306      483.686       704.18
  307      484.129       704.66
  308      484.572       705.04
  309      485.014       705.34
  310      485.456       705.28
  311      485.899       704.48
  312      486.341       703.66
  313      486.783       703.06
  314      487.225        702.6
  315      487.667        702.2
  316      488.109       702.16
  317      488.551       702.12
  318      488.993       702.22
  319      489.434       702.32
  320      489.876       702.68
  321      490.318       703.14
  322      490.759          703
  323        491.2       703.04
  324      491.641       703.82
  325      492.083       704.14
  326      492.524        704.2
  327      492.965        704.6
  328      493.406       704.62
  329      493.846       703.88
  330      494.287       703.52
  331      494.728       703.56
  332      495.168       703.64
  333      495.609       703.88
  334      496.049       704.16
  335      496.489       704.68
  336       496.93       705.44
  337       497.37       706.02
  338       497.81       706.26
  339       498.25        706.8
  340       498.69       707.26
  341      499.129       707.48
  342      499.569       708.14
  343      500.009        708.8
  344      500.448       708.86
  345      500.888        708.5
  346      501.327       707.94
  347      501.766       707.38
  348      502.206       706.84
  349      502.645        706.3
  350      503.084        705.9
  351      503.523        705.4
  352      503.961       704.86
  353        504.4        704.9
  354      504.839       705.44
  355      505.277       706.44
  356      505.716        707.5
  357      506.154       708.36
  358      506.593       708.42
  359      507.031       708.14
  360      507.469       707.68
  361      507.907       707.14
  362      508.345       706.64
  363      508.783       706.34
  364      509.221       706.16
  365      509.659       705.84
  366      510.096        706.1
  367      510.534       706.96
  368      510.971        707.9
  369      511.409       708.96
  370      511.846       709.84
  371      512.283       709.96
  372       512.72       709.46
  373      513.157       708.56
  374      513.594       707.42
  375      514.031       706.58
  376      514.468       706.42
  377      514.905       706.72
  378      515.341       707.48
  379      515.778       708.58
  380      516.214       709.68
  381       516.65       710.62
  382      517.087          711
  383      517.523       710.66
  384      517.959        709.9
  385      518.395        709.4
  386      518.831       708.74
  387      519.267       708.12
  388      519.702       707.64
  389      520.138       707.44
  390      520.574       706.92
  391      521.009       706.36
  392      521.444       706.38
  393       521.88       707.06
  394      522.315       707.58
  395       522.75       708.06
  396      523.185        708.5
  397       523.62       708.52
  398      524.055       708.14
  399       524.49       708.02
  400      524.924       708.14
  401      525.359       708.28
  402      525.794       708.44
  403      526.228       709.56
  404      526.662       710.94
  405      527.097       711.44
  406      527.531       711.54
  407      527.965       711.46
  408      528.399       710.54
  409      528.833        709.3
  410      529.267        708.7
  411        529.7       708.32
  412      530.134       707.96
  413      530.568       707.92
  414      531.001       708.32
  415      531.434       708.92
  416      531.868       709.62
  417      532.301       710.48
  418      532.734       711.28
  419      533.167       711.42
  420        533.6       711.76
  421      534.033       712.56
  422      534.466       713.48
  423      534.898       714.22
  424      535.331       714.92
  425      535.763       715.16
  426      536.196       714.74
  427      536.628       714.18
  428       537.06       714.02
  429      537.493       714.18
  430      537.925       714.64
  431      538.357        715.2
  432      538.788       715.64
  433       539.22       715.88
  434      539.652       716.14
  435      540.084       716.26
  436      540.515       716.14
  437      540.947       715.72
  438      541.378       715.06
  439      541.809       714.36
  440       542.24       713.92
  441      542.672       714.26
  442      543.103        714.6
  443      543.533       714.82
  444      543.964       715.12
  445      544.395       715.26
  446      544.826        714.8
  447      545.256       714.34
  448      545.687          714
  449      546.117       713.94
  450      546.547       714.04
  451      546.978       714.38
  452      547.408       714.78
  453      547.838       715.06
  454      548.268       715.34
  455      548.698       716.08
  456      549.127        717.1
  457      549.557       718.04
  458      549.987       718.76
  459      550.416       719.12
  460      550.846       718.46
  461      551.275        717.4
  462      551.704       716.38
  463      552.133       715.52
  464      552.562       714.64
  465      552.991       714.32
  466       553.42       714.54
  467      553.849       715.44
  468      554.278        716.4
  469      554.706       717.74
  470      555.135       719.28
  471      555.563       719.98
  472      555.991       720.16
  473       556.42       720.58
  474      556.848       720.64
  475      557.276       719.88
  476      557.704       719.54
  477      558.132       719.38
  478       558.56       719.38
  479      558.987        719.5
  480      559.415       719.78
  481      559.843       720.04
  482       560.27       720.38
  483      560.697       720.08
  484      561.125       719.38
  485      561.552       719.28
  486      561.979       719.58
  487      562.406       720.08
  488      562.833       720.96
  489       563.26        721.8
  490      563.686        722.3
  491      564.113       722.54
  492       564.54       722.68
  493      564.966       723.04
  494      565.392        723.6
  495      565.819       724.12
  496      566.245       724.78
  497      566.671       725.46
  498      567.097       726.06
  499      567.523       726.52
  500      567.949       726.66
  501      568.374       726.88
  502        568.8       726.92
  503      569.226        726.8
  504      569.651        726.8
  505      570.077        727.2
  506      570.502        726.7
  507      570.927       726.18
  508      571.352       726.54
  509      571.777        727.1
  510      572.202       727.86
  511      572.627       729.24
  512      573.052        730.5
  513      573.476       731.22
  514      573.901       731.56
  515      574.325       731.24
  516       574.75          731
  517      575.174       731.38
  518      575.598       731.86
  519      576.022       732.54
  520      576.446       733.58
  521       576.87        734.6
  522      577.294       735.08
  523      577.718        735.6
  524      578.142       736.42
  525      578.565       736.92
  526      578.989        737.2
  527      579.412       737.92
  528      579.835        737.9
  529      580.259       736.74
  530      580.682          736
  531      581.105       736.02
  532      581.528       735.72
  533      581.951       735.46
  534      582.373        735.7
  535      582.796       736.04
  536      583.219        736.3
  537      583.641       736.82
  538      584.063       737.94
  539      584.486       739.54
  540      584.908       740.74
  541       585.33        741.3
  542      585.752       741.24
  543      586.174        741.2
  544      586.596       741.14
  545      587.018        740.8
  546      587.439       740.82
  547      587.861       741.42
  548      588.282        741.6
  549      588.704       741.52
  550      589.125       742.22
  551      589.546        742.8
  552      589.967        742.6
  553      590.388       742.16
  554      590.809       742.24
  555       591.23       742.32
  556      591.651       742.68
  557      592.071        743.9
  558      592.492       745.74
  559      592.912       747.36
  560      593.333       748.14
  561      593.753       748.22
  562      594.173       747.98
  563      594.593       747.36
  564      595.013       746.78
  565      595.433       746.66
  566      595.853       747.26
  567      596.273       748.12
  568      596.693       748.68
  569      597.112       748.78
  570      597.532        749.1
  571      597.951        748.6
  572       598.37       747.78
  573      598.789        747.5
  574      599.208       747.62
  575      599.627       747.82
  576      600.046        748.4
  577      600.465       748.62
  578      600.884       748.34
  579      601.303       747.68
  580      601.721       746.48
  581      602.139       745.56
  582      602.558        745.6
  583      602.976       746.14
  584      603.394        747.2
  585      603.812       748.58
  586       604.23       749.54
  587      604.648       749.74
  588      605.066       749.34
  589      605.484        748.5
  590      605.901       747.36
  591      606.319       746.06
  592      606.736       744.84
  593      607.154       744.12
  594      607.571       743.64
  595      607.988        743.4
  596      608.405       743.46
  597      608.822        743.3
  598      609.239       742.66
  599      609.656       742.06
  600      610.072        741.4
  601      610.489       740.56
  602      610.905       739.78
  603      611.322       739.06
  604      611.738       737.74
  605      612.154       736.28
  606       612.57       735.06
  607      612.986       734.46
  608      613.402       734.28
  609      613.818       734.46
  610      614.234       734.66
  611       614.65       734.52
  612      615.065       733.86
  613      615.481       732.64
  614      615.896       731.18
  615      616.311        729.7
  616      616.727       728.44
  617      617.142        726.9
  618      617.557       725.68
  619      617.972        724.5
  620      618.386       722.94
  621      618.801       721.16
  622      619.216       719.78
  623       619.63       718.32
  624      620.045       717.34
  625      620.459       716.84
  626      620.873        715.9
  627      621.287       714.34
  628      621.702        712.9
  629      622.116        711.6
  630      622.529       710.46
  631      622.943       710.14
  632      623.357       710.24
  633      623.771       710.02
  634      624.184       709.56
  635      624.597       709.24
  636      625.011        708.8
  637      625.424       708.58
  638      625.837       708.92
  639       626.25       709.12
  640      626.663        709.4
  641      627.076       709.86
  642      627.489       710.08
  643      627.901       709.96
  644      628.314       709.74
  645      628.726       709.24
  646      629.139        708.8
  647      629.551       708.56
  648      629.963        708.7
  649      630.375        709.6
  650      630.787       710.68
  651      631.199       711.24
  652      631.611       711.84
  653      632.023       712.16
  654      632.434       711.66
  655      632.846       710.94
  656      633.257        710.5
  657      633.669       709.84
  658       634.08       709.08
  659      634.491       708.54
  660      634.902       708.18
  661      635.313          708
  662      635.724        708.4
  663      636.135        709.1
  664      636.545        709.7
  665      636.956       710.74
  666      637.366       711.72
  667      637.777        711.8
  668      638.187       711.64
  669      638.597       711.64
  670      639.007       711.02
  671      639.417        710.4
  672      639.827       710.14
  673      640.237       709.78
  674      640.647       709.28
  675      641.056       708.84
  676      641.466       708.52
  677      641.875        708.3
  678      642.285        708.5
  679      642.694       708.92
  680      643.103       709.22
  681      643.512       709.26
  682      643.921       709.34
  683       644.33          709
  684      644.739       708.66
  685      645.148       708.74
  686      645.556       709.04
  687      645.965        709.6
  688      646.373        710.4
  689      646.781       711.22
  690      647.189       711.94
  691      647.598       712.32
  692      648.006       712.06
  693      648.414       712.02
  694      648.821       712.42
  695      649.229       712.64
  696      649.637        712.3
  697      650.044        711.7
  698      650.452       710.94
  699      650.859       710.18
  700      651.266       709.22
  701      651.673       708.88
  702       652.08       709.32
  703      652.487       709.62
  704      652.894        709.6
  705      653.301       710.32
  706      653.708       711.28
  707      654.114       711.94
  708      654.521       712.18
  709      654.927       711.66
  710      655.333       710.54
  711       655.74       709.34
  712      656.146       708.24
  713      656.552        707.4
  714      656.958       707.02
  715      657.363       706.76
  716      657.769       706.46
  717      658.175        706.1
  718       658.58       706.28
  719      658.986        706.7
  720      659.391        707.1
  721      659.796       707.52
  722      660.201       707.82
  723      660.606       707.78
  724      661.011        707.8
  725      661.416        708.1
  726      661.821       708.28
  727      662.225       708.56
  728       662.63       708.72
  729      663.034       708.36
  730      663.439        707.6
  731      663.843       706.92
  732      664.247       706.44
  733      664.651       705.84
  734      665.055        705.2
  735      665.459       704.48
  736      665.863       703.98
  737      666.267       703.78
  738       666.67        704.3
  739      667.074       705.36
  740      667.477       706.76
  741       667.88       707.96
  742      668.283       708.58
  743      668.687        708.5
  744       669.09       708.08
  745      669.492       707.24
  746      669.895       706.66
  747      670.298       706.42
  748      670.701       706.52
  749      671.103       706.58
  750      671.505       706.52
  751      671.908       706.24
  752       672.31       706.06
  753      672.712        705.8
  754      673.114          706
  755      673.516        706.6
  756      673.918       707.02
  757       674.32       707.04
  758      674.721       707.16
  759      675.123        706.9
  760      675.524       706.76
  761      675.926        706.8
  762      676.327       706.78
  763      676.728       706.68
  764      677.129        706.8
  765       677.53       706.58
  766      677.931       706.08
  767      678.332       706.04
  768      678.732          706
  769      679.133       705.56
  770      679.533       705.54
  771      679.934       706.06
  772      680.334        706.4
  773      680.734       706.46
  774      681.134       706.68
  775      681.534       706.52
  776      681.934       705.98
  777      682.334       705.46
  778      682.733        704.8
  779      683.133       704.62
  780      683.532       704.84
  781      683.932        705.1
  782      684.331       705.22
  783       684.73       705.68
  784      685.129       705.66
  785      685.528       705.46
  786      685.927       705.16
  787      686.326       704.82
  788      686.725       704.64
  789      687.123       704.82
  790      687.522       705.02
  791       687.92       705.26
  792      688.319       705.58
  793      688.717       706.08
  794      689.115       706.54
  795      689.513       706.64
  796      689.911       706.54
  797      690.309        706.6
  798      690.706       706.58
  799      691.104       706.46
  800      691.501       706.58
  801      691.899       706.88
  802      692.296       707.52
  803      692.693       708.14
  804       693.09        708.2
  805      693.488       708.12
  806      693.884        708.1
  807      694.281       707.02
  808      694.678       705.62
  809      695.075        704.8
  810      695.471       704.42
  811      695.868       703.98
  812      696.264       703.86
  813       696.66       704.12
  814      697.056       704.28
  815      697.452       703.96
  816      697.848       704.24
  817      698.244       705.36
  818       698.64        706.1
  819      699.035       706.64
  820      699.431        707.5
  821      699.826       707.48
  822      700.222       706.42
  823      700.617        705.5
  824      701.012       704.72
  825      701.407        704.1
  826      701.802       704.04
  827      702.197       704.42
  828      702.592       704.72
  829      702.986       704.96
  830      703.381       704.84
  831      703.775       705.04
  832       704.17        705.8
  833      704.564       706.42
  834      704.958        706.6
  835      705.352        706.8
  836      705.746       706.56
  837       706.14        705.7
  838      706.533       705.54
  839      706.927       705.86
  840      707.321       706.12
  841      707.714       706.38
  842      708.107       706.82
  843      708.501       707.04
  844      708.894       707.18
  845      709.287        707.3
  846       709.68       707.42
  847      710.073       707.06
  848      710.465       706.12
  849      710.858       705.36
  850      711.251        704.5
  851      711.643       703.48
  852      712.035       703.18
  853      712.428        703.4
  854       712.82        703.7
  855      713.212       704.24
  856      713.604       704.86
  857      713.995        705.3
  858      714.387       706.02
  859      714.779       706.64
  860       715.17       707.24
  861      715.562       707.46
  862      715.953       707.34
  863      716.344       706.84
  864      716.735       706.24
  865      717.127       705.84
  866      717.517       705.36
  867      717.908       705.22
  868      718.299       705.18
  869       718.69       705.46
  870       719.08       706.04
  871      719.471       707.26
  872      719.861       708.12
  873      720.251        708.7
  874      720.641        708.5
  875      721.031        707.3
  876      721.421       706.02
  877      721.811       704.94
  878      722.201       703.96
  879       722.59       703.46
  880       722.98        703.2
  881      723.369        702.7
  882      723.759       702.64
  883      724.148       702.82
  884      724.537       702.94
  885      724.926        703.4
  886      725.315       703.94
  887      725.704       703.92
  888      726.092       704.06
  889      726.481       704.82
  890       726.87       705.44
  891      727.258       706.06
  892      727.646        706.6
  893      728.034       706.26
  894      728.423       705.56
  895      728.811       705.64
  896      729.198       705.72
  897      729.586       706.16
  898      729.974       707.22
  899      730.362       708.22
  900      730.749        708.5
  901      731.136       708.52
  902      731.524       708.24
  903      731.911       707.82
  904      732.298        707.5
  905      732.685       707.36
  906      733.072       707.28
  907      733.459       707.08
  908      733.845       706.78
  909      734.232       706.12
  910      734.618        705.1
  911      735.005       704.32
  912      735.391       703.82
  913      735.777       703.32
  914      736.163       703.24
  915      736.549       703.44
  916      736.935       703.64
  917      737.321        704.1
  918      737.706       704.76
  919      738.092       705.24
  920      738.477       705.78
  921      738.863       706.76
  922      739.248       707.46
  923      739.633       707.62
  924      740.018       707.56
  925      740.403       707.54
  926      740.788       707.32
  927      741.173       707.22
  928      741.557       707.16
  929      741.942       707.12
  930      742.326       706.82
  931      742.711       706.06
  932      743.095       705.04
  933      743.479       704.46
  934      743.863          704
  935      744.247       703.66
  936      744.631       703.52
  937      745.015       703.54
  938      745.398       703.52
  939      745.782       703.38
  940      746.165       703.36
  941      746.548       703.58
  942      746.932          704
  943      747.315       704.44
  944      747.698       704.86
  945      748.081        705.5
  946      748.463       705.98
  947      748.846       706.22
  948      749.229       706.46
  949      749.611       706.16
  950      749.993        705.4
  951      750.376       704.94
  952      750.758       704.58
  953       751.14       704.34
  954      751.522       705.24
  955      751.904       706.04
  956      752.285       706.38
  957      752.667        706.7
  958      753.049        706.9
  959       753.43       706.68
  960      753.811        706.5
  961      754.193       706.56
  962      754.574        706.2
  963      754.955       705.32
  964      755.336       704.86
  965      755.717        705.5
  966      756.097       706.34
  967      756.478        706.8
  968      756.858       707.16
  969      757.239       707.24
  970      757.619        706.3
  971      757.999       704.82
  972      758.379        704.1
  973      758.759        704.6
  974      759.139       705.12
  975      759.519       705.58
  976      759.899       706.04
  977      760.278       706.18
  978      760.658       705.52
  979      761.037       705.04
  980      761.417       705.18
  981      761.796       705.46
  982      762.175       705.48
  983      762.554       705.44
  984      762.933        705.3
  985      763.311       704.72
  986       763.69        704.3
  987      764.068       704.82
  988      764.447       705.54
  989      764.825       705.64
  990      765.203       705.84
  991      765.582        706.2
  992       765.96       706.44
  993      766.338       706.52
  994      766.715       706.68
  995      767.093       706.94
  996      767.471       706.92
  997      767.848        706.4
  998      768.226       706.12
  999      768.603       706.32
 1000       768.98       706.44
 1001      769.357       706.38
 1002      769.734       706.78
 1003      770.111       707.22
 1004      770.488       707.26
 1005      770.864       706.92
 1006      771.241        706.6
 1007      771.617       706.22
 1008      771.994       706.22
 1009       772.37       706.58
 1010      772.746       707.06
 1011      773.122       707.54
 1012      773.498       707.64
 1013      773.874       707.14
 1014       774.25       706.36
 1015      774.625        705.6
 1016      775.001       705.06
 1017      775.376       704.94
 1018      775.751        704.9
 1019      776.127       704.66
 1020      776.502       704.36
 1021      776.877       704.06
 1022      777.252       703.82
 1023      777.626       703.94
 1024      778.001       704.36
 1025      778.375       705.16
 1026       778.75       706.08
 1027      779.124       706.78
 1028      779.499       706.86
 1029      779.873       706.92
 1030      780.247       706.84
 1031      780.621       706.72
 1032      780.994       706.54
 1033      781.368       706.48
 1034      781.742       706.42
 1035      782.115       706.02
 1036      782.489       705.48
 1037      782.862       705.42
 1038      783.235       705.64
 1039      783.608       705.32
 1040      783.981       705.26
 1041      784.354        705.8
 1042      784.727       705.74
 1043        785.1        705.2
 1044      785.472       705.02
 1045      785.845       705.06
 1046      786.217       704.96
 1047      786.589        704.8
 1048      786.961       704.64
 1049      787.333       704.82
 1050      787.705       704.74
 1051      788.077       703.88
 1052      788.449       703.14
 1053       788.82       702.84
 1054      789.192       702.16
 1055      789.563       701.72
 1056      789.934       702.06
 1057      790.306       702.42
 1058      790.677       702.54
 1059      791.048       702.88
 1060      791.419       703.26
 1061      791.789       703.42
 1062       792.16        703.8
 1063       792.53       704.28
 1064      792.901       704.62
 1065      793.271       704.62
 1066      793.641       704.64
 1067      794.012       704.46
 1068      794.382       704.24
 1069      794.751       704.22
 1070      795.121       704.46
 1071      795.491       704.74
 1072      795.861       705.18
 1073       796.23       705.56
 1074      796.599       705.32
 1075      796.969       704.84
 1076      797.338       704.24
 1077      797.707       703.66
 1078      798.076        703.6
 1079      798.445       704.12
 1080      798.813        704.2
 1081      799.182       704.12
 1082       799.55       704.28
 1083      799.919       703.82
 1084      800.287       703.56
 1085      800.655        704.1
 1086      801.023       704.42
 1087      801.391       704.46
 1088      801.759       705.26
 1089      802.127       706.08
 1090      802.495       706.28
 1091      802.862        706.3
 1092       803.23       705.76
 1093      803.597       704.68
 1094      803.964        703.6
 1095      804.331        702.8
 1096      804.698       702.62
 1097      805.065       702.78
 1098      805.432        703.4
 1099      805.799       704.08
 1100      806.165       704.58
 1101      806.532       704.98
 1102      806.898       705.64
 1103      807.264        705.8
 1104      807.631        705.5
 1105      807.997          705
 1106      808.363       704.24
 1107      808.728       703.46
 1108      809.094       703.12
 1109       809.46       703.36
 1110      809.825       703.58
 1111      810.191       703.68
 1112      810.556       704.04
 1113      810.921       703.86
 1114      811.286        703.4
 1115      811.651       703.44
 1116      812.016       703.86
 1117      812.381       703.98
 1118      812.745       704.38
 1119       813.11       704.32
 1120      813.474       703.86
 1121      813.839       703.66
 1122      814.203       703.74
 1123      814.567       703.94
 1124      814.931        704.5
 1125      815.295       705.46
 1126      815.659       706.34
 1127      816.022       706.98
 1128      816.386       706.82
 1129      816.749       706.12
 1130      817.113       705.34
 1131      817.476       704.26
 1132      817.839       703.14
 1133      818.202       702.68
 1134      818.565        702.8
 1135      818.928       703.18
 1136      819.291       703.72
 1137      819.653       704.28
 1138      820.016       704.72
 1139      820.378       705.14
 1140       820.74        705.3
 1141      821.102        705.5
 1142      821.464       705.82
 1143      821.826        706.1
 1144      822.188       706.18
 1145       822.55       706.26
 1146      822.912          706
 1147      823.273        705.5
 1148      823.634       704.98
 1149      823.996        704.7
 1150      824.357        704.6
 1151      824.718       704.86
 1152      825.079        705.3
 1153       825.44        705.7
 1154      825.801       705.88
 1155      826.161       705.42
 1156      826.522       704.44
 1157      826.882       703.64
 1158      827.242       702.82
 1159      827.603       701.76
 1160      827.963        701.4
 1161      828.323       701.64
 1162      828.682       702.08
 1163      829.042       703.08
 1164      829.402       704.26
 1165      829.761        704.9
 1166      830.121       705.26
 1167       830.48       705.18
 1168      830.839        704.6
 1169      831.198       704.34
 1170      831.557       704.44
 1171      831.916       704.76
 1172      832.275        705.2
 1173      832.634       705.46
 1174      832.992       705.62
 1175      833.351       705.76
 1176      833.709       705.62
 1177      834.067        705.3
 1178      834.425       705.22
 1179      834.783       704.68
 1180      835.141       704.16
 1181      835.499       704.28
 1182      835.857        704.1
 1183      836.214       703.48
 1184      836.572       703.18
 1185      836.929       703.06
 1186      837.286       702.52
 1187      837.644       702.56
 1188      838.001       703.08
 1189      838.357       703.38
 1190      838.714       703.66
 1191      839.071       703.86
 1192      839.428       703.82
 1193      839.784       703.46
 1194       840.14       703.64
 1195      840.497       703.78
 1196      840.853       703.58
 1197      841.209       703.34
 1198      841.565       703.58
 1199       841.92       703.96
 1200      842.276        704.1
 1201      842.632       704.46
 1202      842.987       705.18
 1203      843.343       706.34
 1204      843.698          707
 1205      844.053       707.44
 1206      844.408       707.66
 1207      844.763       707.26
 1208      845.118        706.4
 1209      845.472        705.4
 1210      845.827       704.46
 1211      846.181       703.92
 1212      846.536       703.52
 1213       846.89          703
 1214      847.244       703.06
 1215      847.598        703.2
 1216      847.952        703.4
 1217      848.306       703.92
 1218       848.66       704.18
 1219      849.013       704.18
 1220      849.367       704.62
 1221       849.72       704.88
 1222      850.073        704.5
 1223      850.427        704.2
 1224       850.78       703.94
 1225      851.133       703.54
 1226      851.485       703.12
 1227      851.838       703.24
 1228      852.191        703.8
 1229      852.543       704.26
 1230      852.896       704.52
 1231      853.248       704.84
 1232        853.6       705.08
 1233      853.952       704.94
 1234      854.304       705.08
 1235      854.656       705.54
 1236      855.007       706.06
 1237      855.359       706.58
 1238       855.71       707.16
 1239      856.062       707.42
 1240      856.413        707.5
 1241      856.764       707.36
 1242      857.115        707.1
 1243      857.466       707.26
 1244      857.817        707.2
 1245      858.168        706.6
 1246      858.518       706.12
 1247      858.869       706.18
 1248      859.219       705.96
 1249      859.569       705.52
 1250       859.92       705.22
 1251       860.27        704.9
 1252      860.619       704.02
 1253      860.969       703.14
 1254      861.319        703.1
 1255      861.669        703.7
 1256      862.018       704.04
 1257      862.367       704.12
 1258      862.717        704.4
 1259      863.066       704.52
 1260      863.415        704.6
 1261      863.764        704.9
 1262      864.112       705.52
 1263      864.461       706.02
 1264       864.81        706.4
 1265      865.158        706.6
 1266      865.507       706.76
 1267      865.855       706.58
 1268      866.203       705.82
 1269      866.551        705.1
 1270      866.899       704.34
 1271      867.247       703.66
 1272      867.594       703.74
 1273      867.942       704.22
 1274      868.289       704.32
 1275      868.637        704.4
 1276      868.984       704.32
 1277      869.331       703.36
 1278      869.678       702.36
 1279      870.025       701.98
 1280      870.372       701.96
 1281      870.718       702.68
 1282      871.065       704.28
 1283      871.411       705.58
 1284      871.758       706.16
 1285      872.104        706.3
 1286       872.45       705.62
 1287      872.796       704.18
 1288      873.142        703.3
 1289      873.488       702.94
 1290      873.833       702.62
 1291      874.179       702.86
 1292      874.524       703.24
 1293      874.869       703.32
 1294      875.215       703.18
 1295       875.56       703.04
 1296      875.905       702.88
 1297       876.25       703.22
 1298      876.594       703.64
 1299      876.939       704.04
 1300      877.283       704.22
 1301      877.628       704.14
 1302      877.972       704.22
 1303      878.316        704.9
 1304       878.66        705.4
 1305      879.004       705.76
 1306      879.348       706.44
 1307      879.692        707.4
 1308      880.035       707.72
 1309      880.379       707.96
 1310      880.722       708.46
 1311      881.066       708.56
 1312      881.409        707.8
 1313      881.752        706.9
 1314      882.095       706.22
 1315      882.438       705.66
 1316       882.78       705.52
 1317      883.123       706.14
 1318      883.465       707.02
 1319      883.808       708.08
 1320       884.15       709.04
 1321      884.492       709.94
 1322      884.834       710.24
 1323      885.176        710.1
 1324      885.518       709.58
 1325      885.859       709.26
 1326      886.201       708.38
 1327      886.542       707.28
 1328      886.884       706.42
 1329      887.225       705.74
 1330      887.566        704.9
 1331      887.907       703.92
 1332      888.248       703.14
 1333      888.589       702.86
 1334      888.929        702.9
 1335       889.27       703.08
 1336       889.61       704.42
 1337      889.951       706.02
 1338      890.291       707.14
 1339      890.631       707.66
 1340      890.971       707.46
 1341      891.311       706.22
 1342       891.65        704.9
 1343       891.99        704.3
 1344      892.329       704.66
 1345      892.669       705.66
 1346      893.008       707.06
 1347      893.347       708.04
 1348      893.686       707.98
 1349      894.025       707.52
 1350      894.364       706.98
 1351      894.703       706.14
 1352      895.041       705.98
 1353       895.38       706.38
 1354      895.718       706.46
 1355      896.056        706.5
 1356      896.395       706.88
 1357      896.733       706.94
 1358      897.071       706.84
 1359      897.408       706.62
 1360      897.746       705.98
 1361      898.084        705.4
 1362      898.421       704.76
 1363      898.758        703.7
 1364      899.095        703.1
 1365      899.433       703.14
 1366       899.77       702.94
 1367      900.106        702.6
 1368      900.443       703.02
 1369       900.78       703.64
 1370      901.116       704.32
 1371      901.453        705.1
 1372      901.789       705.44
 1373      902.125        705.3
 1374      902.461       705.14
 1375      902.797       704.54
 1376      903.133        703.6
 1377      903.469        703.1
 1378      903.804       703.18
 1379       904.14       703.32
 1380      904.475       703.68
 1381       904.81       704.28
 1382      905.146       705.32
 1383      905.481        705.9
 1384      905.815        705.7
 1385       906.15       705.22
 1386      906.485        704.5
 1387      906.819        703.3
 1388      907.154          702
 1389      907.488        701.2
 1390      907.822       701.24
 1391      908.156       701.86
 1392       908.49       702.48
 1393      908.824       703.16
 1394      909.158       703.94
 1395      909.492       704.34
 1396      909.825       704.72
 1397      910.159       705.72
 1398      910.492       706.96
 1399      910.825        707.9
 1400      911.158       708.48
 1401      911.491        708.9
 1402      911.824        708.7
 1403      912.157       707.98
 1404      912.489       707.38
 1405      912.822       707.18
 1406      913.154        707.1
 1407      913.486        706.9
 1408      913.818       706.68
 1409       914.15        706.3
 1410      914.482        705.8
 1411      914.814       704.64
 1412      915.146       703.48
 1413      915.477       703.08
 1414      915.809       703.02
 1415       916.14       702.88
 1416      916.471       703.34
 1417      916.802        704.4
 1418      917.133          705
 1419      917.464       704.96
 1420      917.795       705.18
 1421      918.125       705.24
 1422      918.456       704.98
 1423      918.786       704.88
 1424      919.116       705.28
 1425      919.446       705.26
 1426      919.776       705.24
 1427      920.106       705.32
 1428      920.436       705.54
 1429      920.766       705.52
 1430      921.095        705.5
 1431      921.425       705.68
 1432      921.754       706.08
 1433      922.083       706.18
 1434      922.412       706.12
 1435      922.741       706.02
 1436       923.07       705.86
 1437      923.399        705.6
 1438      923.727       705.04
 1439      924.056       704.86
 1440      924.384       704.98
 1441      924.713        704.4
 1442      925.041       703.22
 1443      925.369        702.5
 1444      925.697       701.94
 1445      926.024       701.64
 1446      926.352       702.16
 1447       926.68          703
 1448      927.007        703.7
 1449      927.334       704.32
 1450      927.662       704.66
 1451      927.989       704.48
 1452      928.316       704.48
 1453      928.643       704.72
 1454      928.969       704.62
 1455      929.296       704.26
 1456      929.622       704.42
 1457      929.949       704.34
 1458      930.275       703.62
 1459      930.601        703.2
 1460      930.927       703.36
 1461      931.253       703.34
 1462      931.579       703.64
 1463      931.905       704.36
 1464       932.23       704.96
 1465      932.556       704.98
 1466      932.881       705.14
 1467      933.206       705.52
 1468      933.531       705.68
 1469      933.856       705.68
 1470      934.181       705.86
 1471      934.506       705.84
 1472       934.83        705.5
 1473      935.155       705.56
 1474      935.479       706.06
 1475      935.803       706.72
 1476      936.128       707.22
 1477      936.452       707.28
 1478      936.775       707.16
 1479      937.099        706.5
 1480      937.423       705.56
 1481      937.746       705.32
 1482       938.07       705.58
 1483      938.393       705.58
 1484      938.716       705.46
 1485      939.039        704.8
 1486      939.362       703.38
 1487      939.685       702.04
 1488      940.008       701.08
 1489      940.331       700.98
 1490      940.653       702.08
 1491      940.975        703.2
 1492      941.298       704.04
 1493       941.62       705.12
 1494      941.942       705.76
 1495      942.264       705.64
 1496      942.585       705.68
 1497      942.907       706.04
 1498      943.229       706.24
 1499       943.55       706.46
 1500      943.871        706.5
 1501      944.192       706.18
 1502      944.513       705.84
 1503      944.834       705.26
 1504      945.155        704.5
 1505      945.476       703.92
 1506      945.796       703.66
 1507      946.117       703.12
 1508      946.437       702.52
 1509      946.757        702.1
 1510      947.078       702.12
 1511      947.398       702.26
 1512      947.717       702.56
 1513      948.037       703.62
 1514      948.357       704.58
 1515      948.676       704.88
 1516      948.996       704.94
 1517      949.315       705.16
 1518      949.634       704.78
 1519      949.953        704.4
 1520      950.272        704.7
 1521      950.591       705.12
 1522      950.909       705.38
 1523      951.228       705.82
 1524      951.546       706.38
 1525      951.865       706.44
 1526      952.183       706.38
 1527      952.501        706.1
 1528      952.819       705.68
 1529      953.137       705.06
 1530      953.454          704
 1531      953.772       702.98
 1532      954.089       702.24
 1533      954.407        701.5
 1534      954.724       700.98
 1535      955.041        701.2
 1536      955.358        701.8
 1537      955.675       702.08
 1538      955.992       702.52
 1539      956.308       703.22
 1540      956.625       703.98
 1541      956.941       704.16
 1542      957.257       704.06
 1543      957.574       703.46
 1544       957.89       702.88
 1545      958.206       702.46
 1546      958.521       702.56
 1547      958.837       703.34
 1548      959.152       704.38
 1549      959.468       704.82
 1550      959.783       704.68
 1551      960.098       704.22
 1552      960.413       703.72
 1553      960.728       703.04
 1554      961.043        702.6
 1555      961.358       702.86
 1556      961.672        703.5
 1557      961.987       704.04
 1558      962.301       704.56
 1559      962.615       704.82
 1560       962.93       704.34
 1561      963.244       703.64
 1562      963.557       703.24
 1563      963.871       703.16
 1564      964.185       703.18
 1565      964.498       703.52
 1566      964.812       704.06
 1567      965.125       704.06
 1568      965.438        703.7
 1569      965.751       703.56
 1570      966.064       703.38
 1571      966.377        703.1
 1572      966.689       703.46
 1573      967.002       704.32
 1574      967.314       705.18
 1575      967.626       706.18
 1576      967.939        706.7
 1577      968.251       706.18
 1578      968.563        704.9
 1579      968.874       703.52
 1580      969.186       702.28
 1581      969.498        701.5
 1582      969.809       701.32
 1583       970.12       701.72
 1584      970.431       702.12
 1585      970.743       702.72
 1586      971.053       703.64
 1587      971.364       704.68
 1588      971.675       705.58
 1589      971.986        706.3
 1590      972.296       706.82
 1591      972.606       707.04
 1592      972.917       706.78
 1593      973.227       706.62
 1594      973.537       706.56
 1595      973.847       706.46
 1596      974.156        705.9
 1597      974.466       705.54
 1598      974.775       705.28
 1599      975.085       705.42
 1600      975.394       705.66
 1601      975.703       706.16
 1602      976.012       707.28
 1603      976.321       708.08
 1604       976.63       707.94
 1605      976.938       707.76
 1606      977.247       707.66
 1607      977.555       706.66
 1608      977.863       705.52
 1609      978.172       704.82
 1610       978.48        703.7
 1611      978.787       702.46
 1612      979.095       701.52
 1613      979.403        701.1
 1614       979.71       701.46
 1615      980.018       702.14
 1616      980.325        702.7
 1617      980.632       703.26
 1618      980.939       704.04
 1619      981.246       704.42
 1620      981.553        704.6
 1621       981.86       704.92
 1622      982.166       704.92
 1623      982.473       704.28
 1624      982.779       703.62
 1625      983.085       703.18
 1626      983.391       703.16
 1627      983.697       703.56
 1628      984.003       704.38
 1629      984.309        705.2
 1630      984.614       705.72
 1631       984.92       705.58
 1632      985.225       705.74
 1633       985.53       706.02
 1634      985.835       706.24
 1635       986.14       706.72
 1636      986.445       707.28
 1637       986.75       707.08
 1638      987.054        706.4
 1639      987.359       705.68
 1640      987.663       704.84
 1641      987.967       704.28
 1642      988.271       703.98
 1643      988.575       703.88
 1644      988.879       704.12
 1645      989.183       704.22
 1646      989.487       703.66
 1647       989.79       703.18
 1648      990.093       702.76
 1649      990.397       702.12
 1650        990.7       701.72
 1651      991.003       702.46
 1652      991.306       703.42
 1653      991.608       703.98
 1654      991.911       704.24
 1655      992.213       704.68
 1656      992.516        705.1
 1657      992.818       705.24
 1658       993.12       705.36
 1659      993.422        705.4
 1660      993.724       705.12
 1661      994.026        704.3
 1662      994.327        703.9
 1663      994.629          704
 1664       994.93       704.76
 1665      995.232       705.64
 1666      995.533       706.16
 1667      995.834       706.08
 1668      996.135       705.78
 1669      996.435       705.32
 1670      996.736       704.88
 1671      997.036       704.92
 1672      997.337       705.54
 1673      997.637       706.04
 1674      997.937        705.8
 1675      998.237       705.62
 1676      998.537       705.26
 1677      998.837        704.6
 1678      999.137       704.54
 1679      999.436       705.22
 1680      999.735        705.4
 1681      1000.03        705.7
 1682      1000.33          706
 1683      1000.63       705.86
 1684      1000.93       705.62
 1685      1001.23       705.46
 1686      1001.53       705.22
 1687      1001.83       705.12
 1688      1002.13        705.2
 1689      1002.42       705.04
 1690      1002.72       705.12
 1691      1003.02       705.34
 1692      1003.32        705.8
 1693      1003.62       706.44
 1694      1003.91        707.5
 1695      1004.21       708.36
 1696      1004.51       708.88
 1697      1004.81       708.66
 1698       1005.1       707.92
 1699       1005.4       706.72
 1700       1005.7       705.54
 1701      1005.99       704.58
 1702      1006.29       703.94
 1703      1006.59       703.24
 1704      1006.88       702.78
 1705      1007.18       702.68
 1706      1007.48       702.66
 1707      1007.77        703.1
 1708      1008.07       704.32
 1709      1008.36       705.06
 1710      1008.66       705.52
 1711      1008.95        705.7
 1712      1009.25       705.16
 1713      1009.55       704.22
 1714      1009.84       703.78
 1715      1010.14       703.86
 1716      1010.43       704.42
 1717      1010.73       705.28
 1718      1011.02       705.74
 1719      1011.31       706.28
 1720      1011.61       706.82
 1721       1011.9       706.78
 1722       1012.2       706.42
 1723      1012.49        706.2
 1724      1012.79       705.98
 1725      1013.08        705.9
 1726      1013.37       706.46
 1727      1013.67       706.84
 1728      1013.96          707
 1729      1014.25       707.38
 1730      1014.55       707.62
 1731      1014.84       707.16
 1732      1015.13       706.76
 1733      1015.42       706.82
 1734      1015.72       706.46
 1735      1016.01       705.52
 1736       1016.3       705.08
 1737      1016.59       705.36
 1738      1016.89       705.38
 1739      1017.18       705.48
 1740      1017.47       705.88
 1741      1017.76        706.4
 1742      1018.05       706.42
 1743      1018.35       706.42
 1744      1018.64       706.18
 1745      1018.93       705.66
 1746      1019.22       704.76
 1747      1019.51       704.04
 1748       1019.8       703.64
 1749      1020.09       703.36
 1750      1020.38       703.18
 1751      1020.67       703.06
 1752      1020.96       703.08
 1753      1021.25       702.94
 1754      1021.54       702.96
 1755      1021.83          703
 1756      1022.12       702.92
 1757      1022.41        703.1
 1758       1022.7       703.04
 1759      1022.99       702.98
 1760      1023.28       703.44
 1761      1023.57       703.84
 1762      1023.86        703.9
 1763      1024.15       704.28
 1764      1024.44       704.54
 1765      1024.73       704.36
 1766      1025.02       704.76
 1767       1025.3       705.08
 1768      1025.59       705.08
 1769      1025.88       705.16
 1770      1026.17        705.4
 1771      1026.46       705.22
 1772      1026.74       705.22
 1773      1027.03       705.26
 1774      1027.32       704.58
 1775      1027.61       703.12
 1776      1027.89       701.64
 1777      1028.18       700.26
 1778      1028.47       699.12
 1779      1028.76        698.8
 1780      1029.04        699.8
 1781      1029.33        701.4
 1782      1029.62       702.36
 1783       1029.9       702.92
 1784      1030.19       703.38
 1785      1030.47       702.72
 1786      1030.76       701.62
 1787      1031.05       701.34
 1788      1031.33       701.92
 1789      1031.62       702.82
 1790       1031.9       704.34
 1791      1032.19       705.64
 1792      1032.47       706.28
 1793      1032.76       706.36
 1794      1033.04       706.06
 1795      1033.33       705.38
 1796      1033.61       704.42
 1797       1033.9       703.86
 1798      1034.18       703.48
 1799      1034.47       703.04
 1800      1034.75        702.8
 1801      1035.04       702.88
 1802      1035.32       703.06
 1803       1035.6       703.32
 1804      1035.89        703.6
 1805      1036.17        703.7
 1806      1036.45       704.14
 1807      1036.74       704.32
 1808      1037.02        704.2
 1809       1037.3       704.58
 1810      1037.59        705.6
 1811      1037.87        706.4
 1812      1038.15       706.96
 1813      1038.44       707.38
 1814      1038.72        707.2
 1815         1039       706.42
 1816      1039.28       705.56
 1817      1039.56        704.7
 1818      1039.85        704.1
 1819      1040.13       704.18
 1820      1040.41        704.2
 1821      1040.69       704.14
 1822      1040.97       704.64
 1823      1041.25       705.14
 1824      1041.54       705.12
 1825      1041.82       705.28
 1826       1042.1       705.74
 1827      1042.38        705.8
 1828      1042.66        705.3
 1829      1042.94       704.78
 1830      1043.22       704.86
 1831       1043.5       704.66
 1832      1043.78       704.62
 1833      1044.06       705.36
 1834      1044.34       705.86
 1835      1044.62       705.62
 1836       1044.9       705.44
 1837      1045.18       705.18
 1838      1045.46       704.68
 1839      1045.74       704.52
 1840      1046.02        704.4
 1841       1046.3       704.32
 1842      1046.58       704.22
 1843      1046.85       704.26
 1844      1047.13       704.14
 1845      1047.41        703.8
 1846      1047.69       703.64
 1847      1047.97        703.7
 1848      1048.25       703.68
 1849      1048.52        703.8
 1850       1048.8       704.12
 1851      1049.08          704
 1852      1049.36       703.88
 1853      1049.63       704.04
 1854      1049.91       703.62
 1855      1050.19       702.82
 1856      1050.47       702.86
 1857      1050.74       702.88
 1858      1051.02       702.52
 1859       1051.3       702.72
 1860      1051.57       703.46
 1861      1051.85       703.74
 1862      1052.13       703.68
 1863       1052.4        703.4
 1864      1052.68       703.52
 1865      1052.95        703.9
 1866      1053.23       703.98
 1867      1053.51       704.12
 1868      1053.78       704.48
 1869      1054.06       704.56
 1870      1054.33       704.42
 1871      1054.61       704.46
 1872      1054.88       704.74
 1873      1055.16       705.34
 1874      1055.43        705.9
 1875      1055.71       705.92
 1876      1055.98       705.82
 1877      1056.25          706
 1878      1056.53       706.16
 1879       1056.8       705.74
 1880      1057.08       705.62
 1881      1057.35       705.82
 1882      1057.62        705.3
 1883       1057.9       704.44
 1884      1058.17       704.42
 1885      1058.45       704.56
 1886      1058.72       704.26
 1887      1058.99       704.22
 1888      1059.26       704.38
 1889      1059.54       704.28
 1890      1059.81       704.34
 1891      1060.08       704.48
 1892      1060.35       704.52
 1893      1060.63       704.26
 1894       1060.9       703.46
 1895      1061.17       702.52
 1896      1061.44       702.24
 1897      1061.71       702.88
 1898      1061.99       703.82
 1899      1062.26       704.92
 1900      1062.53       706.14
 1901       1062.8        707.1
 1902      1063.07       707.22
 1903      1063.34        707.1
 1904      1063.61       706.72
 1905      1063.88       705.68
 1906      1064.15       704.24
 1907      1064.42       702.98
 1908       1064.7       702.16
 1909      1064.97          702
 1910      1065.24        702.5
 1911      1065.51       703.22
 1912      1065.78       704.14
 1913      1066.04       704.66
 1914      1066.31       705.08
 1915      1066.58       705.44
 1916      1066.85        705.2
 1917      1067.12        704.4
 1918      1067.39       703.78
 1919      1067.66       703.46
 1920      1067.93       703.28
 1921       1068.2        703.5
 1922      1068.47       703.68
 1923      1068.73       703.82
 1924         1069        703.7
 1925      1069.27       703.58
 1926      1069.54       703.76
 1927      1069.81       704.08
 1928      1070.07       704.16
 1929      1070.34       704.34
 1930      1070.61       704.58
 1931      1070.88       704.48
 1932      1071.14       704.48
 1933      1071.41        704.8
 1934      1071.68       705.32
 1935      1071.94       705.78
 1936      1072.21        706.5
 1937      1072.48       707.26
 1938      1072.74        707.7
 1939      1073.01       707.18
 1940      1073.28          706
 1941      1073.54       705.14
 1942      1073.81       704.74
 1943      1074.07       704.56
 1944      1074.34       704.52
 1945       1074.6       704.58
 1946      1074.87       704.28
 1947      1075.13       703.76
 1948       1075.4       703.28
 1949      1075.66       703.18
 1950      1075.93        702.8
 1951      1076.19       702.26
 1952      1076.46          702
 1953      1076.72       702.26
 1954      1076.99       702.84
 1955      1077.25        704.2
 1956      1077.52       705.96
 1957      1077.78       706.92
 1958      1078.04       706.96
 1959      1078.31       706.56
 1960      1078.57        705.9
 1961      1078.83       705.32
 1962       1079.1       705.18
 1963      1079.36       705.46
 1964      1079.62       706.08
 1965      1079.89       706.66
 1966      1080.15       706.72
 1967      1080.41       706.64
 1968      1080.67        706.6
 1969      1080.94       706.44
 1970       1081.2        706.3
 1971      1081.46        705.8
 1972      1081.72       705.12
 1973      1081.98       704.36
 1974      1082.24       703.68
 1975      1082.51       703.68
 1976      1082.77       704.52
 1977      1083.03        705.5
 1978      1083.29        706.4
 1979      1083.55       706.68
 1980      1083.81       706.04
 1981      1084.07       705.04
 1982      1084.33       704.24
 1983      1084.59       703.28
 1984      1084.85       702.94
 1985      1085.11       703.28
 1986      1085.37       703.92
 1987      1085.63       704.66
 1988      1085.89        705.4
 1989      1086.15       706.08
 1990      1086.41       706.74
 1991      1086.67       707.16
 1992      1086.93       707.02
 1993      1087.19        706.6
 1994      1087.45       705.76
 1995      1087.71       704.78
 1996      1087.97       704.06
 1997      1088.23        703.8
 1998      1088.48       703.88
 1999      1088.74       704.46
 2000         1089       705.12
 2001      1089.26       705.72
 2002      1089.52        705.6
 2003      1089.77       705.46
 2004      1090.03        705.5
 2005      1090.29       705.12
 2006      1090.55       704.82
 2007       1090.8        705.3
 2008      1091.06        705.7
 2009      1091.32       705.18
 2010      1091.57       704.78
 2011      1091.83       704.36
 2012      1092.09       703.94
 2013      1092.34       704.16
 2014       1092.6       704.88
 2015      1092.86       705.34
 2016      1093.11       705.52
 2017      1093.37       705.68
 2018      1093.62       705.72
 2019      1093.88        706.2
 2020      1094.13       706.54
 2021      1094.39       706.66
 2022      1094.65       706.86
 2023       1094.9       706.94
 2024      1095.16       706.78
 2025      1095.41       706.86
 2026      1095.66       706.94
 2027      1095.92        706.9
 2028      1096.17        706.6
 2029      1096.43       706.48
 2030      1096.68       706.72
 2031      1096.94       706.96
 2032      1097.19        706.9
 2033      1097.44       706.62
 2034       1097.7       705.54
 2035      1097.95        704.8
 2036       1098.2       704.52
 2037      1098.46       704.06
 2038      1098.71       704.14
 2039      1098.96       704.92
 2040      1099.22       705.34
 2041      1099.47       705.22
 2042      1099.72       705.42
 2043      1099.97        705.5
 2044      1100.23       705.56
 2045      1100.48       705.94
 2046      1100.73        706.2
 2047      1100.98        706.7
