scansci Spectrometer Data File
--- Measurement Setting ---
Type: Sample Spectrum
Date: Mon Oct 16 16:28:34 2023
User: (Reserved by scansci)
Serial: (Reserved by scansci)
Channel: No. 11
Integration Time: 1
Average: 10
Boxcar: 2
Electrical Dark: No-corrected
Time Normalize: (Reserved by scansci)
Dual-beam: (Reserved by scansci)
Reference Ch: (Reserved by scansci)
--- Measurement Data ---
Pixel   Wavelength   Intensity
    0        162.5      618.933
    1      162.985      618.875
    2      163.469       618.84
    3      163.954        618.9
    4      164.439       618.52
    5      164.923       617.86
    6      165.408        617.3
    7      165.892       616.98
    8      166.377       616.74
    9      166.861        616.3
   10      167.345       616.12
   11       167.83       615.56
   12      168.314       614.46
   13      168.798       613.58
   14      169.282       612.96
   15      169.766       612.78
   16       170.25       613.48
   17      170.734       614.04
   18      171.218       614.62
   19      171.702       615.54
   20      172.185       615.94
   21      172.669       615.74
   22      173.153       615.58
   23      173.636       615.92
   24       174.12       616.58
   25      174.603       616.94
   26      175.087        617.2
   27       175.57       617.84
   28      176.053        617.9
   29      176.537        617.2
   30       177.02       616.62
   31      177.503       615.64
   32      177.986       614.86
   33      178.469       614.66
   34      178.952       614.54
   35      179.435       614.32
   36      179.918       614.64
   37      180.401        614.8
   38      180.884        614.4
   39      181.366       613.88
   40      181.849       614.04
   41      182.332        614.9
   42      182.814       615.72
   43      183.297       616.38
   44      183.779       616.96
   45      184.262       616.76
   46      184.744       616.02
   47      185.226       615.56
   48      185.708       614.92
   49      186.191       614.52
   50      186.673       614.44
   51      187.155       613.94
   52      187.637        613.4
   53      188.119       613.24
   54        188.6       612.76
   55      189.082        612.6
   56      189.564       613.42
   57      190.046       614.48
   58      190.527       615.36
   59      191.009       616.12
   60      191.491       616.86
   61      191.972       617.26
   62      192.454       617.12
   63      192.935        616.6
   64      193.416       616.92
   65      193.897       617.54
   66      194.379       617.86
   67       194.86        618.1
   68      195.341       618.68
   69      195.822       618.58
   70      196.303       617.76
   71      196.784       617.02
   72      197.265       616.54
   73      197.746       616.12
   74      198.226       615.86
   75      198.707        615.8
   76      199.188       615.96
   77      199.668       616.06
   78      200.149       615.98
   79      200.629       616.08
   80       201.11       616.34
   81       201.59       616.46
   82       202.07       616.36
   83       202.55       616.08
   84      203.031        615.9
   85      203.511        616.3
   86      203.991       616.18
   87      204.471        615.3
   88      204.951       615.06
   89      205.431       615.24
   90       205.91       614.86
   91       206.39       614.86
   92       206.87          616
   93      207.349          617
   94      207.829        617.9
   95      208.309       618.88
   96      208.788       619.86
   97      209.267       620.78
   98      209.747       621.04
   99      210.226        620.8
  100      210.705       620.54
  101      211.185       619.96
  102      211.664       618.98
  103      212.143       618.34
  104      212.622       617.48
  105      213.101        616.1
  106      213.579       614.96
  107      214.058       614.08
  108      214.537       613.26
  109      215.016       612.46
  110      215.494       611.74
  111      215.973       611.54
  112      216.452       612.04
  113       216.93        612.9
  114      217.408       613.84
  115      217.887        615.2
  116      218.365       616.28
  117      218.843       616.34
  118      219.321       615.94
  119      219.799       615.56
  120      220.278          615
  121      220.755       614.38
  122      221.233        614.5
  123      221.711       614.68
  124      222.189       614.36
  125      222.667       614.18
  126      223.144       614.46
  127      223.622        614.5
  128        224.1       614.82
  129      224.577       616.02
  130      225.055       616.92
  131      225.532       616.96
  132      226.009       616.82
  133      226.486       616.24
  134      226.964       615.24
  135      227.441       614.58
  136      227.918       614.66
  137      228.395       614.68
  138      228.872       614.42
  139      229.349       614.26
  140      229.826       614.16
  141      230.302       613.92
  142      230.779       613.54
  143      231.256       613.54
  144      231.732       613.86
  145      232.209       613.62
  146      232.685       612.78
  147      233.162       612.14
  148      233.638       612.12
  149      234.114       612.18
  150       234.59       612.92
  151      235.066       614.56
  152      235.543       616.38
  153      236.019       617.18
  154      236.495        617.4
  155       236.97        617.2
  156      237.446       616.24
  157      237.922       615.32
  158      238.398       615.06
  159      238.873       614.88
  160      239.349        614.7
  161      239.824        614.8
  162        240.3       614.82
  163      240.775       615.08
  164      241.251       615.56
  165      241.726       616.24
  166      242.201       616.82
  167      242.676       617.14
  168      243.151       617.08
  169      243.626       616.88
  170      244.101       616.32
  171      244.576       615.52
  172      245.051       615.08
  173      245.526        614.8
  174          246       614.44
  175      246.475       614.34
  176       246.95       614.54
  177      247.424       614.32
  178      247.899        614.2
  179      248.373       614.66
  180      248.847       615.46
  181      249.321       616.26
  182      249.796       617.04
  183       250.27       617.08
  184      250.744       616.28
  185      251.218       615.24
  186      251.692       614.16
  187      252.166       613.86
  188      252.639       614.72
  189      253.113       615.68
  190      253.587       616.62
  191       254.06        617.4
  192      254.534       617.34
  193      255.007       616.52
  194      255.481       615.52
  195      255.954       614.16
  196      256.427       613.12
  197      256.901       612.68
  198      257.374       612.26
  199      257.847       612.16
  200       258.32       612.48
  201      258.793       612.86
  202      259.266        613.3
  203      259.739       614.12
  204      260.211       615.34
  205      260.684       615.88
  206      261.157       615.76
  207      261.629       615.58
  208      262.102       615.62
  209      262.574       615.66
  210      263.046        616.1
  211      263.519       616.64
  212      263.991       616.64
  213      264.463        616.2
  214      264.935        615.6
  215      265.407       615.08
  216      265.879       615.12
  217      266.351       615.48
  218      266.823       615.96
  219      267.295       616.34
  220      267.766       616.48
  221      268.238       616.18
  222       268.71       615.82
  223      269.181       615.24
  224      269.653       614.44
  225      270.124       614.04
  226      270.595       614.08
  227      271.066       613.96
  228      271.538        614.1
  229      272.009       614.32
  230       272.48        614.5
  231      272.951       614.84
  232      273.422       614.96
  233      273.892        614.8
  234      274.363       615.06
  235      274.834       615.32
  236      275.305       614.86
  237      275.775       614.74
  238      276.246       614.68
  239      276.716        614.1
  240      277.186        613.8
  241      277.657       614.26
  242      278.127       614.62
  243      278.597        615.2
  244      279.067       616.36
  245      279.537       616.92
  246      280.007       616.92
  247      280.477       616.78
  248      280.947       616.32
  249      281.417       615.62
  250      281.886       615.36
  251      282.356        615.2
  252      282.825       614.88
  253      283.295       615.06
  254      283.764          616
  255      284.234       616.62
  256      284.703       616.84
  257      285.172       617.64
  258      285.641       617.98
  259       286.11       617.26
  260      286.579       616.24
  261      287.048       615.52
  262      287.517       614.76
  263      287.986       613.84
  264      288.454       613.22
  265      288.923       613.48
  266      289.392        613.8
  267       289.86        613.7
  268      290.329       613.66
  269      290.797       613.68
  270      291.265       613.84
  271      291.734       614.12
  272      292.202        614.6
  273       292.67       615.38
  274      293.138       615.86
  275      293.606       615.24
  276      294.074       614.96
  277      294.541       615.66
  278      295.009       616.12
  279      295.477       616.14
  280      295.944       616.44
  281      296.412       616.68
  282      296.879        616.6
  283      297.347       616.48
  284      297.814       616.48
  285      298.281        616.7
  286      298.749       616.76
  287      299.216        616.1
  288      299.683       615.44
  289       300.15       615.06
  290      300.616       614.88
  291      301.083       614.48
  292       301.55       614.18
  293      302.017       614.52
  294      302.483       615.14
  295       302.95        614.9
  296      303.416       614.32
  297      303.883       613.98
  298      304.349       613.42
  299      304.815       612.76
  300      305.281       612.82
  301      305.748       613.34
  302      306.214       613.48
  303       306.68       613.42
  304      307.146        614.1
  305      307.611        614.9
  306      308.077       615.52
  307      308.543       616.12
  308      309.008       616.48
  309      309.474        616.1
  310      309.939       615.64
  311      310.405       615.02
  312       310.87       614.64
  313      311.335       614.84
  314        311.8       615.28
  315      312.266       615.34
  316      312.731       615.42
  317      313.196       615.26
  318       313.66       614.28
  319      314.125       613.02
  320       314.59       612.84
  321      315.055       613.02
  322      315.519       613.34
  323      315.984       613.92
  324      316.448        614.6
  325      316.913       614.58
  326      317.377       614.32
  327      317.841        614.2
  328      318.305       614.48
  329      318.769       614.76
  330      319.233        614.8
  331      319.697       615.04
  332      320.161       615.18
  333      320.625       614.82
  334      321.089       614.22
  335      321.552       614.28
  336      322.016        614.8
  337      322.479       615.06
  338      322.943       615.28
  339      323.406       615.74
  340      323.869       616.16
  341      324.333       616.42
  342      324.796        616.8
  343      325.259       617.04
  344      325.722       617.02
  345      326.185        616.3
  346      326.647       614.94
  347       327.11       613.68
  348      327.573       612.64
  349      328.035        611.9
  350      328.498       612.08
  351       328.96       612.68
  352      329.423       613.44
  353      329.885       614.48
  354      330.347       615.08
  355       330.81       615.12
  356      331.272       615.32
  357      331.734       615.42
  358      332.196       615.88
  359      332.657       617.04
  360      333.119       617.84
  361      333.581       617.62
  362      334.043       616.66
  363      334.504       615.66
  364      334.966       614.94
  365      335.427        614.1
  366      335.888        613.6
  367       336.35       613.62
  368      336.811       613.14
  369      337.272       611.94
  370      337.733       610.88
  371      338.194       610.38
  372      338.655       610.72
  373      339.115        611.3
  374      339.576       612.28
  375      340.037       613.84
  376      340.497       615.14
  377      340.958       615.68
  378      341.418       615.94
  379      341.879       616.34
  380      342.339       616.74
  381      342.799       617.32
  382      343.259       617.56
  383      343.719       617.56
  384      344.179        616.9
  385      344.639       615.92
  386      345.099       614.96
  387      345.559       614.36
  388      346.018       614.32
  389      346.478       614.18
  390      346.937          614
  391      347.397       614.04
  392      347.856       614.44
  393      348.315       614.58
  394      348.774       615.28
  395      349.234       616.34
  396      349.693       617.32
  397      350.152       618.08
  398       350.61        618.9
  399      351.069       619.36
  400      351.528       619.14
  401      351.987       618.06
  402      352.445        616.9
  403      352.904       615.68
  404      353.362       614.06
  405       353.82       612.78
  406      354.279       612.82
  407      354.737        613.2
  408      355.195        613.5
  409      355.653        614.6
  410      356.111          616
  411      356.569       616.44
  412      357.027       616.76
  413      357.484        617.1
  414      357.942          617
  415      358.399       616.28
  416      358.857        615.6
  417      359.314        615.3
  418      359.772        615.4
  419      360.229       615.36
  420      360.686       616.02
  421      361.143        616.8
  422        361.6       616.76
  423      362.057       616.46
  424      362.514       616.34
  425      362.971        615.9
  426      363.427        615.4
  427      363.884       615.02
  428       364.34       614.66
  429      364.797        614.5
  430      365.253       614.96
  431      365.709       614.92
  432      366.166       614.58
  433      366.622       614.46
  434      367.078       614.16
  435      367.534       612.96
  436       367.99       612.18
  437      368.445       612.26
  438      368.901       612.46
  439      369.357       612.86
  440      369.812       613.48
  441      370.268       614.48
  442      370.723        615.3
  443      371.179       615.94
  444      371.634        616.4
  445      372.089       616.42
  446      372.544       616.18
  447      372.999       615.96
  448      373.454       615.92
  449      373.909        616.3
  450      374.364        617.3
  451      374.818       618.46
  452      375.273       619.16
  453      375.727        619.4
  454      376.182       618.82
  455      376.636       617.38
  456       377.09       615.38
  457      377.545        613.9
  458      377.999       613.28
  459      378.453       613.56
  460      378.907       614.82
  461      379.361       616.52
  462      379.814       617.54
  463      380.268        617.8
  464      380.722        617.9
  465      381.175       617.44
  466      381.629       616.66
  467      382.082       615.78
  468      382.535        615.1
  469      382.989        614.6
  470      383.442       614.52
  471      383.895       614.66
  472      384.348        615.5
  473      384.801       616.38
  474      385.253       616.88
  475      385.706       616.96
  476      386.159       616.72
  477      386.611       615.82
  478      387.064        614.9
  479      387.516       614.08
  480      387.968        613.3
  481      388.421          613
  482      388.873       613.28
  483      389.325       613.58
  484      389.777       614.04
  485      390.229       614.62
  486      390.681       614.58
  487      391.132        614.6
  488      391.584        614.8
  489      392.035       614.38
  490      392.487       614.46
  491      392.938       615.24
  492       393.39       615.56
  493      393.841       615.52
  494      394.292       615.84
  495      394.743       615.36
  496      395.194       614.88
  497      395.645       614.82
  498      396.096        614.6
  499      396.546       614.26
  500      396.997       614.52
  501      397.448        614.6
  502      397.898       614.74
  503      398.349        615.5
  504      398.799       616.36
  505      399.249       617.06
  506      399.699          618
  507      400.149        618.8
  508      400.599       618.78
  509      401.049       618.62
  510      401.499       618.34
  511      401.949       617.06
  512      402.398       615.48
  513      402.848       614.68
  514      403.297       614.42
  515      403.747       614.32
  516      404.196        615.2
  517      404.645          616
  518      405.094       616.48
  519      405.543        616.8
  520      405.992          617
  521      406.441       616.98
  522       406.89       617.44
  523      407.339       618.36
  524      407.787       619.32
  525      408.236          620
  526      408.684       620.06
  527      409.132       619.78
  528      409.581        618.8
  529      410.029       616.72
  530      410.477       614.74
  531      410.925        614.1
  532      411.373       614.06
  533      411.821       614.06
  534      412.269          615
  535      412.716       616.14
  536      413.164       616.44
  537      413.611       616.26
  538      414.059       616.44
  539      414.506        616.8
  540      414.953       616.94
  541        415.4       616.88
  542      415.847        616.7
  543      416.294       616.44
  544      416.741       615.78
  545      417.188       615.24
  546      417.635       614.84
  547      418.081       614.58
  548      418.528       614.64
  549      418.974       614.82
  550      419.421       614.94
  551      419.867       615.28
  552      420.313        616.2
  553      420.759       616.98
  554      421.205       617.22
  555      421.651       617.14
  556      422.097       617.38
  557      422.543       617.36
  558      422.989       616.84
  559      423.434       616.84
  560       423.88       617.56
  561      424.325        617.8
  562       424.77       617.36
  563      425.216       617.08
  564      425.661       617.16
  565      426.106       617.04
  566      426.551       617.04
  567      426.996       617.82
  568       427.44       619.06
  569      427.885       620.38
  570       428.33       621.86
  571      428.774       623.06
  572      429.219        623.4
  573      429.663       623.18
  574      430.107       622.56
  575      430.551       621.94
  576      430.996        621.4
  577       431.44       621.26
  578      431.883       621.54
  579      432.327       622.12
  580      432.771       622.58
  581      433.215       623.44
  582      433.658       623.98
  583      434.102       623.72
  584      434.545       623.38
  585      434.988       623.08
  586      435.431       622.82
  587      435.875       623.72
  588      436.318       625.46
  589      436.761       627.16
  590      437.203          629
  591      437.646       630.82
  592      438.089       631.84
  593      438.531       632.44
  594      438.974       632.86
  595      439.416       633.36
  596      439.859       634.24
  597      440.301       635.48
  598      440.743        636.8
  599      441.185       638.16
  600      441.627       640.08
  601      442.069        641.9
  602       442.51       643.36
  603      442.952        644.7
  604      443.394       645.84
  605      443.835       646.68
  606      444.277       648.02
  607      444.718       650.48
  608      445.159       653.58
  609        445.6        656.6
  610      446.041        659.5
  611      446.482       661.86
  612      446.923       663.48
  613      447.364       665.58
  614      447.804       668.74
  615      448.245       672.14
  616      448.685       676.02
  617      449.126       680.16
  618      449.566       684.32
  619      450.006        688.7
  620      450.447       693.32
  621      450.887       697.76
  622      451.326       702.22
  623      451.766       706.48
  624      452.206       710.42
  625      452.646       714.56
  626      453.085       719.54
  627      453.525       725.28
  628      453.964       730.82
  629      454.403        736.3
  630      454.843       741.76
  631      455.282       746.34
  632      455.721       750.78
  633       456.16       755.36
  634      456.599          760
  635      457.037       765.12
  636      457.476       771.76
  637      457.915          778
  638      458.353       784.02
  639      458.791       789.72
  640       459.23        794.5
  641      459.668       798.16
  642      460.106       801.58
  643      460.544       804.68
  644      460.982       808.08
  645       461.42       811.12
  646      461.857       813.72
  647      462.295       816.46
  648      462.733       819.48
  649       463.17          822
  650      463.607        824.3
  651      464.045       826.66
  652      464.482          830
  653      464.919       833.88
  654      465.356        837.9
  655      465.793       842.08
  656       466.23       846.06
  657      466.666       848.42
  658      467.103       850.52
  659      467.539       853.16
  660      467.976       856.14
  661      468.412       859.08
  662      468.848       862.92
  663      469.284        867.3
  664       469.72       871.92
  665      470.156       877.06
  666      470.592       882.86
  667      471.028       888.98
  668      471.464       894.72
  669      471.899       899.98
  670      472.335       905.28
  671       472.77       910.76
  672      473.205       915.64
  673      473.641       920.48
  674      474.076       925.16
  675      474.511       929.54
  676      474.946       933.78
  677       475.38        938.2
  678      475.815       943.02
  679       476.25       948.16
  680      476.684       953.26
  681      477.119       958.68
  682      477.553       964.82
  683      477.987       970.54
  684      478.421       975.82
  685      478.856       981.34
  686      479.289       986.86
  687      479.723       992.12
  688      480.157       997.86
  689      480.591      1003.88
  690      481.024      1009.68
  691      481.458      1015.72
  692      481.891      1022.08
  693      482.324      1029.02
  694      482.758      1037.76
  695      483.191      1047.58
  696      483.624      1058.24
  697      484.057      1069.32
  698      484.489      1080.66
  699      484.922      1091.56
  700      485.355      1102.54
  701      485.787      1113.68
  702       486.22      1125.06
  703      486.652       1136.9
  704      487.084      1149.52
  705      487.516      1163.52
  706      487.948      1177.84
  707       488.38       1192.8
  708      488.812      1208.32
  709      489.244       1224.3
  710      489.676      1240.54
  711      490.107      1257.52
  712      490.539      1275.14
  713       490.97       1292.7
  714      491.401      1310.12
  715      491.832       1326.8
  716      492.263       1343.7
  717      492.694      1361.36
  718      493.125      1379.38
  719      493.556      1397.68
  720      493.987      1417.52
  721      494.417      1437.92
  722      494.848       1458.8
  723      495.278       1481.7
  724      495.708      1506.84
  725      496.139       1532.9
  726      496.569      1558.68
  727      496.999      1583.02
  728      497.429      1606.42
  729      497.858      1628.48
  730      498.288      1649.54
  731      498.718      1670.72
  732      499.147      1691.56
  733      499.577      1711.52
  734      500.006      1733.14
  735      500.435      1754.04
  736      500.864      1773.12
  737      501.293      1795.36
  738      501.722      1819.44
  739      502.151      1841.36
  740       502.58      1864.08
  741      503.008      1888.42
  742      503.437      1910.74
  743      503.865      1931.52
  744      504.293      1951.82
  745      504.722      1970.62
  746       505.15       1988.1
  747      505.578      2004.86
  748      506.006      2020.18
  749      506.434      2036.54
  750      506.861      2055.58
  751      507.289      2074.88
  752      507.716      2092.64
  753      508.144      2110.38
  754      508.571       2126.1
  755      508.998      2139.24
  756      509.425       2153.4
  757      509.852      2169.24
  758      510.279       2183.1
  759      510.706      2195.78
  760      511.133      2209.08
  761       511.56      2221.08
  762      511.986      2231.96
  763      512.412       2245.1
  764      512.839      2258.86
  765      513.265      2270.26
  766      513.691      2280.24
  767      514.117      2287.92
  768      514.543      2294.64
  769      514.969      2302.14
  770      515.395      2308.96
  771       515.82      2314.12
  772      516.246      2318.88
  773      516.671      2323.36
  774      517.096      2326.24
  775      517.522      2328.12
  776      517.947       2329.2
  777      518.372      2330.62
  778      518.797      2330.84
  779      519.222      2330.06
  780      519.646      2328.62
  781      520.071      2329.44
  782      520.495      2332.62
  783       520.92      2334.74
  784      521.344      2335.06
  785      521.768      2336.32
  786      522.192      2336.04
  787      522.616      2333.18
  788       523.04      2331.62
  789      523.464      2330.78
  790      523.888      2327.44
  791      524.311      2321.38
  792      524.735         2314
  793      525.158      2304.62
  794      525.581      2295.14
  795      526.005      2285.82
  796      526.428      2277.42
  797      526.851      2269.96
  798      527.274      2261.72
  799      527.696       2251.3
  800      528.119      2239.56
  801      528.542      2225.36
  802      528.964       2209.4
  803      529.386      2194.68
  804      529.809      2181.52
  805      530.231      2171.28
  806      530.653      2164.72
  807      531.075      2158.96
  808      531.497       2151.3
  809      531.918      2143.44
  810       532.34      2133.26
  811      532.761      2119.14
  812      533.183       2103.6
  813      533.604      2089.36
  814      534.025       2075.7
  815      534.447      2063.56
  816      534.868      2054.16
  817      535.289      2045.74
  818      535.709      2036.14
  819       536.13         2024
  820      536.551      2008.76
  821      536.971       1990.1
  822      537.392      1969.84
  823      537.812       1950.7
  824      538.232       1936.1
  825      538.652      1924.06
  826      539.072      1911.74
  827      539.492      1897.68
  828      539.912       1880.6
  829      540.331      1859.78
  830      540.751      1840.46
  831       541.17      1826.44
  832       541.59      1815.68
  833      542.009      1806.56
  834      542.428      1796.96
  835      542.847      1784.76
  836      543.266      1768.16
  837      543.685      1748.32
  838      544.104      1728.02
  839      544.522       1709.9
  840      544.941      1693.44
  841      545.359       1679.2
  842      545.778      1667.96
  843      546.196      1658.26
  844      546.614      1648.68
  845      547.032      1639.08
  846       547.45      1629.04
  847      547.867       1617.2
  848      548.285      1604.38
  849      548.703      1591.28
  850       549.12      1577.36
  851      549.538      1563.86
  852      549.955      1552.12
  853      550.372      1540.44
  854      550.789      1528.92
  855      551.206      1517.58
  856      551.623      1505.46
  857      552.039      1492.98
  858      552.456      1481.96
  859      552.873      1471.62
  860      553.289      1461.98
  861      553.705       1453.4
  862      554.121      1445.54
  863      554.537      1436.92
  864      554.953      1426.12
  865      555.369      1414.92
  866      555.785      1404.44
  867      556.201       1393.1
  868      556.616      1380.96
  869      557.032       1369.7
  870      557.447      1358.18
  871      557.862      1346.48
  872      558.277       1336.7
  873      558.692      1327.82
  874      559.107      1318.12
  875      559.522       1308.6
  876      559.937       1298.4
  877      560.351      1286.04
  878      560.766       1273.5
  879       561.18      1261.28
  880      561.595      1247.88
  881      562.009      1234.24
  882      562.423      1221.12
  883      562.837      1206.34
  884       563.25       1190.9
  885      563.664      1176.76
  886      564.078       1162.9
  887      564.491      1148.28
  888      564.905      1134.46
  889      565.318      1121.04
  890      565.731      1106.96
  891      566.144      1093.18
  892      566.557      1080.16
  893       566.97      1066.98
  894      567.383      1053.64
  895      567.795      1039.64
  896      568.208      1025.58
  897       568.62      1012.84
  898      569.033       1001.2
  899      569.445       990.26
  900      569.857       981.16
  901      570.269        972.9
  902      570.681       964.74
  903      571.093       957.24
  904      571.504       949.98
  905      571.916       942.34
  906      572.327       935.08
  907      572.739       927.66
  908       573.15       919.86
  909      573.561       913.06
  910      573.972       906.58
  911      574.383       899.62
  912      574.794        892.9
  913      575.204       886.66
  914      575.615       880.12
  915      576.025        874.5
  916      576.436       869.34
  917      576.846       863.54
  918      577.256        857.5
  919      577.666       851.28
  920      578.076       845.18
  921      578.486       840.16
  922      578.896       836.22
  923      579.305       832.98
  924      579.715       830.02
  925      580.124       826.26
  926      580.533       821.48
  927      580.942       816.58
  928      581.351        810.9
  929       581.76        805.6
  930      582.169       801.22
  931      582.578       796.44
  932      582.986       790.44
  933      583.395       785.14
  934      583.803       780.16
  935      584.212        774.9
  936       584.62       770.12
  937      585.028       766.32
  938      585.436       762.82
  939      585.843       759.22
  940      586.251       755.84
  941      586.659       752.68
  942      587.066       749.82
  943      587.474       746.92
  944      587.881        743.1
  945      588.288       738.26
  946      588.695       733.64
  947      589.102       729.44
  948      589.509       725.34
  949      589.915        721.7
  950      590.322        719.2
  951      590.728       717.36
  952      591.135       715.22
  953      591.541       713.12
  954      591.947       711.58
  955      592.353       709.92
  956      592.759       707.64
  957      593.165       705.46
  958      593.571        703.2
  959      593.976       701.12
  960      594.382       699.12
  961      594.787       696.94
  962      595.192       694.64
  963      595.597        692.5
  964      596.002        689.9
  965      596.407       687.34
  966      596.812       685.26
  967      597.217       683.46
  968      597.621       681.54
  969      598.026       679.84
  970       598.43       677.32
  971      598.834       673.72
  972      599.238       669.56
  973      599.642       665.62
  974      600.046       662.34
  975       600.45       660.36
  976      600.854       659.22
  977      601.257       657.84
  978      601.661       656.26
  979      602.064       654.56
  980      602.467       652.56
  981       602.87       650.68
  982      603.273        649.4
  983      603.676        648.1
  984      604.079       646.66
  985      604.481       645.26
  986      604.884       643.56
  987      605.286       641.58
  988      605.689       640.56
  989      606.091       640.28
  990      606.493       639.86
  991      606.895       639.06
  992      607.297       638.24
  993      607.698       637.28
  994        608.1       635.92
  995      608.501       634.62
  996      608.903        633.8
  997      609.304       632.92
  998      609.705        631.7
  999      610.106        630.2
 1000      610.507       628.64
 1001      610.908       626.98
 1002      611.308       625.22
 1003      611.709       623.56
 1004      612.109        622.3
 1005       612.51       621.24
 1006       612.91       620.98
 1007       613.31       621.66
 1008       613.71        622.2
 1009       614.11       622.34
 1010       614.51       623.22
 1011      614.909       624.24
 1012      615.309       624.68
 1013      615.708       624.84
 1014      616.108       624.82
 1015      616.507       623.44
 1016      616.906       621.64
 1017      617.305       620.02
 1018      617.704       618.58
 1019      618.102       617.66
 1020      618.501        617.5
 1021      618.899       617.36
 1022      619.298        617.3
 1023      619.696       617.22
 1024      620.094       616.84
 1025      620.492        616.3
 1026       620.89          616
 1027      621.288       616.18
 1028      621.686       616.34
 1029      622.083       616.36
 1030       622.48       616.62
 1031      622.878       616.74
 1032      623.275       616.48
 1033      623.672       616.16
 1034      624.069       616.44
 1035      624.466       616.82
 1036      624.863       617.12
 1037      625.259        617.6
 1038      625.656       618.26
 1039      626.052       618.62
 1040      626.448       618.46
 1041      626.844       617.36
 1042      627.241       615.82
 1043      627.636       614.52
 1044      628.032       614.02
 1045      628.428       613.92
 1046      628.823       614.64
 1047      629.219       615.54
 1048      629.614       615.98
 1049      630.009       615.28
 1050      630.404       614.38
 1051      630.799       613.98
 1052      631.194        613.6
 1053      631.589          614
 1054      631.984       615.16
 1055      632.378       616.16
 1056      632.772       616.34
 1057      633.167       616.08
 1058      633.561       615.38
 1059      633.955        615.3
 1060      634.349        616.1
 1061      634.743       616.86
 1062      635.136       617.38
 1063       635.53        617.5
 1064      635.923        616.6
 1065      636.316       614.82
 1066       636.71        613.3
 1067      637.103       612.78
 1068      637.496        612.7
 1069      637.888       612.28
 1070      638.281        612.2
 1071      638.674       612.62
 1072      639.066       613.08
 1073      639.459       613.56
 1074      639.851       614.34
 1075      640.243       614.76
 1076      640.635       614.78
 1077      641.027       614.44
 1078      641.419       614.08
 1079       641.81       614.16
 1080      642.202        614.5
 1081      642.593       614.68
 1082      642.984          615
 1083      643.375        615.4
 1084      643.766       615.62
 1085      644.157       615.82
 1086      644.548        616.1
 1087      644.939       615.92
 1088      645.329        614.9
 1089       645.72        613.7
 1090       646.11       613.04
 1091        646.5       612.54
 1092       646.89       612.32
 1093       647.28       612.72
 1094       647.67       613.14
 1095       648.06       613.56
 1096      648.449       614.06
 1097      648.839       614.06
 1098      649.228       613.72
 1099      649.617       613.28
 1100      650.007       612.62
 1101      650.396       612.48
 1102      650.784       612.92
 1103      651.173       613.42
 1104      651.562       613.92
 1105       651.95       614.38
 1106      652.339       614.68
 1107      652.727        614.8
 1108      653.115       614.86
 1109      653.503        615.2
 1110      653.891        615.6
 1111      654.279       615.52
 1112      654.666       615.94
 1113      655.054       616.66
 1114      655.441       616.94
 1115      655.828        616.8
 1116      656.216       616.68
 1117      656.603       616.12
 1118      656.989       615.66
 1119      657.376       615.08
 1120      657.763          614
 1121      658.149       612.68
 1122      658.536          612
 1123      658.922       611.68
 1124      659.308       611.56
 1125      659.694        611.8
 1126       660.08        611.8
 1127      660.466       611.26
 1128      660.852       610.68
 1129      661.237       610.34
 1130      661.623        610.2
 1131      662.008       610.38
 1132      662.393       610.38
 1133      662.778       610.78
 1134      663.163        611.5
 1135      663.548       612.32
 1136      663.933       613.24
 1137      664.317       613.98
 1138      664.702       613.88
 1139      665.086       613.46
 1140       665.47       613.46
 1141      665.854       613.62
 1142      666.238          614
 1143      666.622       614.32
 1144      667.006       614.26
 1145      667.389       613.48
 1146      667.773       612.96
 1147      668.156       612.94
 1148      668.539       613.52
 1149      668.923       614.18
 1150      669.305       614.76
 1151      669.688       615.14
 1152      670.071        615.2
 1153      670.454       614.52
 1154      670.836       613.84
 1155      671.218        613.5
 1156      671.601       613.18
 1157      671.983       612.66
 1158      672.365       612.28
 1159      672.747        612.1
 1160      673.128       612.16
 1161       673.51        612.2
 1162      673.891       612.32
 1163      674.273       612.36
 1164      674.654       611.86
 1165      675.035       611.14
 1166      675.416        610.9
 1167      675.797       610.92
 1168      676.177       610.74
 1169      676.558       610.92
 1170      676.938       611.04
 1171      677.319       610.62
 1172      677.699       610.28
 1173      678.079       610.62
 1174      678.459       611.24
 1175      678.839       611.88
 1176      679.219       612.32
 1177      679.598        612.2
 1178      679.978        611.9
 1179      680.357       611.92
 1180      680.736       611.94
 1181      681.115       612.04
 1182      681.494        612.7
 1183      681.873        613.3
 1184      682.252        613.4
 1185       682.63       613.54
 1186      683.009        613.9
 1187      683.387       613.88
 1188      683.765        613.9
 1189      684.143          614
 1190      684.521        614.1
 1191      684.899       614.06
 1192      685.277       614.12
 1193      685.654       613.96
 1194      686.032       613.58
 1195      686.409       613.12
 1196      686.786        612.7
 1197      687.163       612.28
 1198       687.54       612.44
 1199      687.917       613.24
 1200      688.294       613.98
 1201       688.67        614.5
 1202      689.046       614.68
 1203      689.423        614.1
 1204      689.799       613.02
 1205      690.175        611.8
 1206      690.551        610.9
 1207      690.927       610.96
 1208      691.302       611.76
 1209      691.678        612.4
 1210      692.053       612.94
 1211      692.428       613.42
 1212      692.804       613.66
 1213      693.179       613.58
 1214      693.553       613.32
 1215      693.928       613.06
 1216      694.303        612.7
 1217      694.677       611.86
 1218      695.052       611.24
 1219      695.426       611.42
 1220        695.8       612.06
 1221      696.174       612.96
 1222      696.548       614.02
 1223      696.921        614.8
 1224      697.295       614.76
 1225      697.669       614.26
 1226      698.042        613.8
 1227      698.415       613.52
 1228      698.788       613.42
 1229      699.161       613.58
 1230      699.534        613.5
 1231      699.907        613.3
 1232      700.279       612.64
 1233      700.652       611.98
 1234      701.024        611.7
 1235      701.396       611.62
 1236      701.768       611.86
 1237       702.14        612.5
 1238      702.512       612.76
 1239      702.883       612.78
 1240      703.255        612.9
 1241      703.626       612.26
 1242      703.998       611.24
 1243      704.369       610.54
 1244       704.74       610.08
 1245      705.111       609.94
 1246      705.481       610.18
 1247      705.852        611.2
 1248      706.222        612.7
 1249      706.593        613.6
 1250      706.963       613.92
 1251      707.333       613.96
 1252      707.703       613.38
 1253      708.073       612.18
 1254      708.442       611.54
 1255      708.812       611.42
 1256      709.181       611.54
 1257      709.551       612.46
 1258       709.92       613.24
 1259      710.289        613.5
 1260      710.658        614.1
 1261      711.027       614.76
 1262      711.395       614.72
 1263      711.764       614.68
 1264      712.132        614.8
 1265        712.5       614.38
 1266      712.869       613.86
 1267      713.236        613.2
 1268      713.604       612.62
 1269      713.972        612.3
 1270       714.34       612.28
 1271      714.707       612.48
 1272      715.074       613.16
 1273      715.442        613.4
 1274      715.809       613.16
 1275      716.176       613.52
 1276      716.542       613.72
 1277      716.909       613.56
 1278      717.276       614.18
 1279      717.642        615.3
 1280      718.008       615.34
 1281      718.374       615.24
 1282       718.74       615.18
 1283      719.106       615.02
 1284      719.472       615.08
 1285      719.838       615.28
 1286      720.203       615.32
 1287      720.568       615.46
 1288      720.934       615.92
 1289      721.299       616.12
 1290      721.664       616.24
 1291      722.029          616
 1292      722.393       615.98
 1293      722.758       615.54
 1294      723.122          615
 1295      723.486       614.98
 1296      723.851       615.98
 1297      724.215       616.64
 1298      724.578        617.5
 1299      724.942       618.28
 1300      725.306       618.22
 1301      725.669       617.92
 1302      726.033       618.44
 1303      726.396       618.72
 1304      726.759       618.28
 1305      727.122       618.54
 1306      727.485        618.7
 1307      727.847       618.08
 1308       728.21        617.8
 1309      728.572        618.2
 1310      728.935        618.2
 1311      729.297          618
 1312      729.659       618.12
 1313      730.021       617.84
 1314      730.382       617.62
 1315      730.744        617.5
 1316      731.105       617.54
 1317      731.467       617.62
 1318      731.828       618.14
 1319      732.189       618.62
 1320       732.55       618.56
 1321      732.911       618.56
 1322      733.271        618.7
 1323      733.632        618.8
 1324      733.992       619.22
 1325      734.352       620.14
 1326      734.713       620.84
 1327      735.072       621.16
 1328      735.432       621.48
 1329      735.792       621.86
 1330      736.152        622.7
 1331      736.511       623.84
 1332       736.87       624.92
 1333      737.229       625.74
 1334      737.589        626.2
 1335      737.947       626.34
 1336      738.306       626.12
 1337      738.665        625.9
 1338      739.023       626.04
 1339      739.382       626.58
 1340       739.74       627.26
 1341      740.098       628.02
 1342      740.456       628.28
 1343      740.814       627.66
 1344      741.171          627
 1345      741.529          627
 1346      741.886       627.24
 1347      742.244       627.96
 1348      742.601       629.14
 1349      742.958       629.98
 1350      743.314       630.48
 1351      743.671       630.36
 1352      744.028        629.8
 1353      744.384          629
 1354       744.74        628.2
 1355      745.097       626.86
 1356      745.453        625.8
 1357      745.809        625.6
 1358      746.164       625.76
 1359       746.52       625.84
 1360      746.875       626.22
 1361      747.231       627.06
 1362      747.586       627.62
 1363      747.941       628.12
 1364      748.296        628.6
 1365      748.651       628.64
 1366      749.005        628.8
 1367       749.36        629.1
 1368      749.714       629.36
 1369      750.069       629.76
 1370      750.423       630.24
 1371      750.777        630.6
 1372       751.13        631.1
 1373      751.484          632
 1374      751.838          633
 1375      752.191       633.78
 1376      752.544       634.14
 1377      752.897       634.16
 1378       753.25       633.86
 1379      753.603       633.52
 1380      753.956       633.84
 1381      754.309       634.96
 1382      754.661       635.96
 1383      755.013       636.54
 1384      755.365       637.12
 1385      755.717       637.72
 1386      756.069       637.36
 1387      756.421       636.96
 1388      756.773        637.6
 1389      757.124        638.2
 1390      757.476       638.22
 1391      757.827        638.3
 1392      758.178       638.02
 1393      758.529       637.26
 1394      758.879       636.72
 1395       759.23       636.46
 1396      759.581       636.32
 1397      759.931       636.48
 1398      760.281        636.1
 1399      760.631       635.06
 1400      760.981       634.12
 1401      761.331       633.68
 1402      761.681       633.16
 1403       762.03       632.74
 1404      762.379       632.66
 1405      762.729       632.88
 1406      763.078       633.02
 1407      763.427       633.02
 1408      763.776       633.14
 1409      764.124       633.18
 1410      764.473        632.7
 1411      764.821       632.04
 1412      765.169       631.72
 1413      765.517       631.22
 1414      765.865       630.38
 1415      766.213       629.44
 1416      766.561       628.18
 1417      766.909       626.64
 1418      767.256       626.06
 1419      767.603        626.5
 1420       767.95       627.38
 1421      768.297       628.72
 1422      768.644       629.96
 1423      768.991       630.16
 1424      769.337       629.48
 1425      769.684        627.9
 1426       770.03       625.86
 1427      770.376       623.58
 1428      770.722       621.94
 1429      771.068        621.1
 1430      771.414       621.16
 1431      771.759       621.76
 1432      772.105       622.82
 1433       772.45       623.62
 1434      772.795        623.5
 1435       773.14       623.12
 1436      773.485       622.84
 1437       773.83       623.14
 1438      774.174       623.76
 1439      774.519       624.52
 1440      774.863       624.88
 1441      775.207       624.78
 1442      775.551       624.26
 1443      775.895       622.82
 1444      776.239       621.02
 1445      776.582       619.72
 1446      776.926          619
 1447      777.269       618.82
 1448      777.612       619.38
 1449      777.955        620.5
 1450      778.298       621.38
 1451      778.641       622.02
 1452      778.983       622.34
 1453      779.326       622.46
 1454      779.668        622.8
 1455       780.01       623.36
 1456      780.352       623.28
 1457      780.694       622.46
 1458      781.036        621.4
 1459      781.377       620.46
 1460      781.719       619.92
 1461       782.06          620
 1462      782.401       620.22
 1463      782.742        620.8
 1464      783.083          621
 1465      783.424       620.32
 1466      783.764       618.88
 1467      784.105       617.52
 1468      784.445       616.14
 1469      784.785       615.02
 1470      785.125        614.4
 1471      785.465       614.26
 1472      785.805        614.9
 1473      786.144       616.06
 1474      786.484       616.86
 1475      786.823       617.72
 1476      787.162       618.44
 1477      787.501       618.38
 1478       787.84       617.66
 1479      788.178       617.18
 1480      788.517       617.06
 1481      788.855       617.34
 1482      789.194        618.3
 1483      789.532        619.6
 1484       789.87       621.02
 1485      790.208       621.82
 1486      790.545       621.88
 1487      790.883       621.04
 1488       791.22        619.5
 1489      791.557       617.72
 1490      791.894       615.86
 1491      792.231        614.8
 1492      792.568       614.74
 1493      792.905        615.3
 1494      793.241       615.72
 1495      793.578       616.18
 1496      793.914        616.8
 1497       794.25       616.94
 1498      794.586       616.48
 1499      794.922          616
 1500      795.257       615.96
 1501      795.593       615.42
 1502      795.928       614.72
 1503      796.263       614.58
 1504      796.598       614.78
 1505      796.933       614.72
 1506      797.268       614.72
 1507      797.603       614.68
 1508      797.937       614.36
 1509      798.271       614.34
 1510      798.606       614.84
 1511       798.94       615.14
 1512      799.274       615.22
 1513      799.607       615.84
 1514      799.941       616.58
 1515      800.274       616.44
 1516      800.608       616.06
 1517      800.941        616.1
 1518      801.274       616.08
 1519      801.607        615.1
 1520      801.939       614.18
 1521      802.272        613.5
 1522      802.604       613.24
 1523      802.936       613.06
 1524      803.269       613.56
 1525      803.601       614.24
 1526      803.932       614.94
 1527      804.264       615.36
 1528      804.596       615.54
 1529      804.927       615.26
 1530      805.258       614.78
 1531      805.589       614.76
 1532       805.92          615
 1533      806.251       614.68
 1534      806.582       614.42
 1535      806.912       614.46
 1536      807.242       614.24
 1537      807.573       613.58
 1538      807.903       613.46
 1539      808.232       613.74
 1540      808.562       614.12
 1541      808.892        614.3
 1542      809.221       614.64
 1543      809.551        614.9
 1544       809.88       614.74
 1545      810.209       614.44
 1546      810.538       614.08
 1547      810.866       613.76
 1548      811.195       613.74
 1549      811.523       614.06
 1550      811.851          614
 1551       812.18       614.12
 1552      812.507       613.98
 1553      812.835       613.38
 1554      813.163       612.84
 1555       813.49       612.78
 1556      813.818       612.54
 1557      814.145       612.18
 1558      814.472        612.1
 1559      814.799       612.22
 1560      815.126       612.28
 1561      815.452       612.12
 1562      815.779       612.06
 1563      816.105       611.92
 1564      816.431        611.3
 1565      816.757       610.82
 1566      817.083       611.42
 1567      817.409       612.94
 1568      817.734       614.28
 1569       818.06       614.96
 1570      818.385        615.6
 1571       818.71       615.48
 1572      819.035       614.56
 1573       819.36       614.34
 1574      819.685       614.94
 1575      820.009       614.96
 1576      820.333       615.26
 1577      820.658       615.86
 1578      820.982       615.44
 1579      821.305       614.34
 1580      821.629       613.66
 1581      821.953       613.08
 1582      822.276       612.26
 1583        822.6       611.46
 1584      822.923       611.24
 1585      823.246        611.1
 1586      823.569        610.9
 1587      823.891       610.66
 1588      824.214       611.08
 1589      824.536       611.58
 1590      824.858       611.76
 1591       825.18       612.08
 1592      825.502        612.4
 1593      825.824       612.32
 1594      826.146       612.54
 1595      826.467       612.74
 1596      826.789       612.08
 1597       827.11        611.5
 1598      827.431       611.12
 1599      827.752       610.96
 1600      828.072       611.48
 1601      828.393       612.18
 1602      828.713       612.72
 1603      829.034       613.22
 1604      829.354       613.24
 1605      829.674       612.98
 1606      829.993        613.3
 1607      830.313       613.98
 1608      830.633       614.88
 1609      830.952       615.26
 1610      831.271       615.12
 1611       831.59       614.76
 1612      831.909       613.98
 1613      832.228       613.24
 1614      832.546       612.72
 1615      832.865       612.44
 1616      833.183       611.52
 1617      833.501       610.38
 1618      833.819       609.24
 1619      834.137       608.66
 1620      834.455       608.52
 1621      834.772          609
 1622      835.089       609.76
 1623      835.407       610.74
 1624      835.724       611.68
 1625       836.04        612.1
 1626      836.357       612.12
 1627      836.674       612.64
 1628       836.99       612.38
 1629      837.306       611.68
 1630      837.623       611.56
 1631      837.939       611.96
 1632      838.254       611.96
 1633       838.57       611.62
 1634      838.886        611.2
 1635      839.201       610.92
 1636      839.516       610.64
 1637      839.831        610.1
 1638      840.146       609.94
 1639      840.461       610.02
 1640      840.775       610.12
 1641       841.09       610.16
 1642      841.404       610.12
 1643      841.718       610.66
 1644      842.032       611.36
 1645      842.346       611.66
 1646      842.659        611.8
 1647      842.973       612.32
 1648      843.286       612.88
 1649      843.599       613.36
 1650      843.912       613.42
 1651      844.225        613.3
 1652      844.538          613
 1653      844.851       612.52
 1654      845.163       612.28
 1655      845.475       612.38
 1656      845.787        612.9
 1657      846.099       613.76
 1658      846.411          615
 1659      846.723       615.44
 1660      847.034       615.58
 1661      847.345       615.78
 1662      847.657       615.98
 1663      847.968       615.74
 1664      848.278       615.54
 1665      848.589       615.48
 1666        848.9       615.08
 1667       849.21        613.8
 1668       849.52       612.22
 1669       849.83       610.94
 1670       850.14        609.9
 1671       850.45       608.98
 1672      850.759          609
 1673      851.069       609.32
 1674      851.378        609.2
 1675      851.687       608.88
 1676      851.996       608.96
 1677      852.305        608.4
 1678      852.614       607.64
 1679      852.922        607.8
 1680       853.23        608.6
 1681      853.539       609.18
 1682      853.847       610.04
 1683      854.154       611.12
 1684      854.462       612.18
 1685       854.77       612.84
 1686      855.077        613.4
 1687      855.384          614
 1688      855.691       614.02
 1689      855.998       613.58
 1690      856.305          613
 1691      856.612       612.28
 1692      856.918       611.88
 1693      857.224       611.84
 1694       857.53       611.98
 1695      857.836       612.24
 1696      858.142        612.6
 1697      858.448       612.62
 1698      858.753       612.52
 1699      859.059       612.46
 1700      859.364       612.18
 1701      859.669       611.94
 1702      859.974       611.92
 1703      860.278        611.8
 1704      860.583        611.4
 1705      860.887        611.3
 1706      861.192       611.34
 1707      861.496       610.94
 1708        861.8       610.24
 1709      862.103        610.1
 1710      862.407       610.92
 1711       862.71       611.74
 1712      863.014       612.58
 1713      863.317       613.84
 1714       863.62       614.96
 1715      863.922       615.04
 1716      864.225        614.4
 1717      864.527       613.72
 1718       864.83       613.16
 1719      865.132       612.74
 1720      865.434       612.02
 1721      865.736        611.3
 1722      866.037       610.62
 1723      866.339       610.22
 1724       866.64          610
 1725      866.941       610.48
 1726      867.242       611.64
 1727      867.543       613.18
 1728      867.844       614.82
 1729      868.145       615.78
 1730      868.445        616.3
 1731      868.745       616.36
 1732      869.045       615.84
 1733      869.345       614.42
 1734      869.645       612.82
 1735      869.944       611.24
 1736      870.244       609.94
 1737      870.543       608.68
 1738      870.842       607.76
 1739      871.141       607.42
 1740       871.44        607.3
 1741      871.739       607.36
 1742      872.037        608.1
 1743      872.335       608.82
 1744      872.634       609.28
 1745      872.931       609.66
 1746      873.229       609.94
 1747      873.527       610.14
 1748      873.824        610.7
 1749      874.122        611.4
 1750      874.419       611.44
 1751      874.716       610.74
 1752      875.013       610.36
 1753      875.309       610.22
 1754      875.606        609.8
 1755      875.902        609.9
 1756      876.199       610.48
 1757      876.495        610.6
 1758       876.79        610.9
 1759      877.086       611.36
 1760      877.382       611.38
 1761      877.677       611.14
 1762      877.972        610.7
 1763      878.267       609.82
 1764      878.562        608.9
 1765      878.857        608.8
 1766      879.152        609.7
 1767      879.446        610.9
 1768       879.74       612.02
 1769      880.034        612.9
 1770      880.328       612.78
 1771      880.622        612.1
 1772      880.916        611.3
 1773      881.209        610.1
 1774      881.502        609.2
 1775      881.795       609.22
 1776      882.088       609.66
 1777      882.381       609.92
 1778      882.674       610.42
 1779      882.966       611.12
 1780      883.258        611.7
 1781      883.551       612.06
 1782      883.843       612.66
 1783      884.134       612.86
 1784      884.426        612.7
 1785      884.717       612.48
 1786      885.009        612.3
 1787        885.3       612.24
 1788      885.591       612.32
 1789      885.882        612.1
 1790      886.172       611.76
 1791      886.463       611.24
 1792      886.753       610.54
 1793      887.043       610.12
 1794      887.333          610
 1795      887.623       609.92
 1796      887.913          610
 1797      888.202       609.46
 1798      888.492       608.74
 1799      888.781        608.6
 1800       889.07       608.82
 1801      889.359       608.64
 1802      889.647       608.88
 1803      889.936       609.58
 1804      890.224       610.12
 1805      890.512        610.5
 1806        890.8       611.14
 1807      891.088       611.68
 1808      891.376       611.92
 1809      891.663       611.56
 1810      891.951       611.12
 1811      892.238       610.42
 1812      892.525       609.98
 1813      892.812       609.66
 1814      893.099       609.56
 1815      893.385       609.36
 1816      893.671       609.36
 1817      893.958       608.96
 1818      894.244       608.36
 1819       894.53        608.3
 1820      894.815       608.14
 1821      895.101          608
 1822      895.386       608.28
 1823      895.671       609.04
 1824      895.956       609.82
 1825      896.241        610.7
 1826      896.526       611.46
 1827       896.81        612.2
 1828      897.095        612.9
 1829      897.379          613
 1830      897.663        612.8
 1831      897.947       612.54
 1832      898.231       612.36
 1833      898.514          612
 1834      898.798       611.54
 1835      899.081       611.42
 1836      899.364        611.8
 1837      899.647       611.86
 1838      899.929        611.8
 1839      900.212       612.14
 1840      900.494       612.78
 1841      900.776       612.86
 1842      901.058        612.7
 1843       901.34       612.34
 1844      901.622       611.96
 1845      901.904       611.26
 1846      902.185       610.88
 1847      902.466       611.18
 1848      902.747       611.56
 1849      903.028       611.76
 1850      903.309          612
 1851      903.589       611.96
 1852       903.87       611.98
 1853       904.15       612.54
 1854       904.43       612.78
 1855       904.71        612.5
 1856      904.989        612.7
 1857      905.269       612.82
 1858      905.548        612.8
 1859      905.827       613.26
 1860      906.106       614.42
 1861      906.385        614.9
 1862      906.664       614.54
 1863      906.942       613.74
 1864      907.221       612.64
 1865      907.499       611.24
 1866      907.777        609.8
 1867      908.055       608.94
 1868      908.332        608.8
 1869       908.61       609.14
 1870      908.887        609.2
 1871      909.164        609.6
 1872      909.441       610.38
 1873      909.718       610.48
 1874      909.995       609.98
 1875      910.271       609.58
 1876      910.548        608.8
 1877      910.824       607.84
 1878        911.1       607.58
 1879      911.375       608.04
 1880      911.651       609.16
 1881      911.927       610.58
 1882      912.202       611.88
 1883      912.477       612.78
 1884      912.752       612.78
 1885      913.027       611.98
 1886      913.301       611.32
 1887      913.576       610.94
 1888       913.85       610.14
 1889      914.124       609.28
 1890      914.398       609.44
 1891      914.672       610.42
 1892      914.945       610.94
 1893      915.219       611.42
 1894      915.492       612.54
 1895      915.765       612.88
 1896      916.038       612.26
 1897      916.311       611.64
 1898      916.583        611.1
 1899      916.856        610.2
 1900      917.128       609.84
 1901        917.4       610.48
 1902      917.672       611.48
 1903      917.944        612.4
 1904      918.215       613.56
 1905      918.486       614.18
 1906      918.758        613.9
 1907      919.029       613.38
 1908      919.299       612.72
 1909       919.57       611.82
 1910      919.841       610.62
 1911      920.111       609.72
 1912      920.381       609.44
 1913      920.651       609.26
 1914      920.921       608.64
 1915      921.191       608.38
 1916       921.46        608.2
 1917      921.729       607.36
 1918      921.999        606.8
 1919      922.268        606.9
 1920      922.536        607.2
 1921      922.805       607.16
 1922      923.073        607.4
 1923      923.342       607.98
 1924       923.61       608.48
 1925      923.878       608.38
 1926      924.145        608.4
 1927      924.413       608.46
 1928       924.68       608.08
 1929      924.948        607.8
 1930      925.215       608.66
 1931      925.482       609.28
 1932      925.748       608.98
 1933      926.015       609.08
 1934      926.281        609.4
 1935      926.547       608.74
 1936      926.813       608.44
 1937      927.079       609.14
 1938      927.345       610.02
 1939       927.61       610.74
 1940      927.876       611.42
 1941      928.141          612
 1942      928.406        612.4
 1943      928.671       612.44
 1944      928.935       612.72
 1945        929.2       613.36
 1946      929.464       613.86
 1947      929.728       614.08
 1948      929.992       613.86
 1949      930.256       613.34
 1950       930.52       612.98
 1951      930.783       612.36
 1952      931.046       612.02
 1953      931.309       612.04
 1954      931.572       611.64
 1955      931.835       610.62
 1956      932.097        610.2
 1957       932.36       610.14
 1958      932.622       610.02
 1959      932.884        610.2
 1960      933.146       610.78
 1961      933.408       611.02
 1962      933.669        611.2
 1963       933.93       611.54
 1964      934.192       611.94
 1965      934.453       612.24
 1966      934.713       612.44
 1967      934.974       612.54
 1968      935.234        612.5
 1969      935.495       612.32
 1970      935.755       612.32
 1971      936.015       612.46
 1972      936.274       612.02
 1973      936.534       611.18
 1974      936.793       610.44
 1975      937.053       609.52
 1976      937.312       608.96
 1977      937.571       609.58
 1978      937.829       610.76
 1979      938.088        611.6
 1980      938.346       612.16
 1981      938.604          612
 1982      938.862       611.06
 1983       939.12       609.96
 1984      939.378       609.58
 1985      939.635       609.62
 1986      939.893       610.04
 1987       940.15        610.3
 1988      940.407       610.16
 1989      940.663        609.4
 1990       940.92        608.9
 1991      941.176       608.54
 1992      941.433       607.72
 1993      941.689       607.34
 1994      941.944       607.56
 1995        942.2        607.5
 1996      942.456       607.34
 1997      942.711       607.68
 1998      942.966       608.28
 1999      943.221        608.8
 2000      943.476        609.6
 2001      943.731       610.96
 2002      943.985       612.52
 2003      944.239        613.8
 2004      944.493       614.86
 2005      944.747        615.5
 2006      945.001        614.9
 2007      945.255       613.94
 2008      945.508       613.04
 2009      945.761       611.88
 2010      946.014       610.74
 2011      946.267       610.12
 2012       946.52       609.64
 2013      946.772       609.44
 2014      947.025       609.82
 2015      947.277       610.42
 2016      947.529       611.26
 2017      947.781        611.7
 2018      948.032        611.6
 2019      948.284       611.18
 2020      948.535       610.26
 2021      948.786        609.3
 2022      949.037       609.06
 2023      949.288       609.18
 2024      949.538       608.92
 2025      949.789       609.04
 2026      950.039        609.4
 2027      950.289       609.56
 2028      950.539       609.44
 2029      950.788       609.86
 2030      951.038       610.38
 2031      951.287       610.36
 2032      951.536       610.14
 2033      951.785       610.46
 2034      952.034       610.82
 2035      952.282       610.54
 2036      952.531       610.46
 2037      952.779       610.74
 2038      953.027       610.38
 2039      953.275       609.56
 2040      953.523       609.18
 2041       953.77       609.02
 2042      954.017       609.32
 2043      954.264       610.16
 2044      954.511       611.12
 2045      954.758        611.9
 2046      955.005      612.675
 2047      955.251      612.733
