scansci Spectrometer Data File
--- Measurement Setting ---
Type: Sample Spectrum
Date: Mon Oct 16 16:52:09 2023
User: (Reserved by scansci)
Serial: (Reserved by scansci)
Channel: No. 11
Integration Time: 1
Average: 10
Boxcar: 2
Electrical Dark: No-corrected
Time Normalize: (Reserved by scansci)
Dual-beam: (Reserved by scansci)
Reference Ch: (Reserved by scansci)
--- Measurement Data ---
Pixel   Wavelength   Intensity
    0        162.5        602.2
    1      162.985       601.25
    2      163.469       600.84
    3      163.954       599.66
    4      164.439       599.32
    5      164.923       599.76
    6      165.408       600.04
    7      165.892        600.4
    8      166.377       601.32
    9      166.861       601.92
   10      167.345       601.84
   11       167.83       601.78
   12      168.314       601.44
   13      168.798       600.46
   14      169.282       599.56
   15      169.766       598.68
   16       170.25       597.96
   17      170.734       597.32
   18      171.218       596.84
   19      171.702       596.76
   20      172.185       597.24
   21      172.669       597.52
   22      173.153       597.44
   23      173.636       597.68
   24       174.12        597.9
   25      174.603       597.78
   26      175.087       598.26
   27       175.57       599.26
   28      176.053       599.68
   29      176.537       599.68
   30       177.02       599.66
   31      177.503       599.62
   32      177.986       599.98
   33      178.469       600.94
   34      178.952        602.1
   35      179.435       603.64
   36      179.918       604.38
   37      180.401       604.38
   38      180.884       603.88
   39      181.366       603.58
   40      181.849       603.36
   41      182.332       603.58
   42      182.814       603.58
   43      183.297       603.56
   44      183.779       603.42
   45      184.262       603.22
   46      184.744       603.32
   47      185.226       603.16
   48      185.708       602.74
   49      186.191       601.74
   50      186.673       600.26
   51      187.155       598.64
   52      187.637       598.12
   53      188.119       597.56
   54        188.6        597.2
   55      189.082       597.64
   56      189.564       598.16
   57      190.046       598.38
   58      190.527       598.82
   59      191.009       599.14
   60      191.491       598.88
   61      191.972       598.72
   62      192.454       598.42
   63      192.935        597.8
   64      193.416       597.64
   65      193.897       598.06
   66      194.379        598.6
   67       194.86       599.12
   68      195.341       600.54
   69      195.822       602.12
   70      196.303       603.26
   71      196.784       603.76
   72      197.265       603.78
   73      197.746       602.68
   74      198.226       601.34
   75      198.707       599.84
   76      199.188       598.56
   77      199.668       597.88
   78      200.149       597.78
   79      200.629       597.58
   80       201.11       597.76
   81       201.59       598.24
   82       202.07       598.84
   83       202.55       599.28
   84      203.031       599.74
   85      203.511        600.4
   86      203.991          601
   87      204.471       601.28
   88      204.951       601.78
   89      205.431        602.1
   90       205.91        601.7
   91       206.39        601.2
   92       206.87       600.92
   93      207.349        600.7
   94      207.829       601.48
   95      208.309       602.64
   96      208.788       603.08
   97      209.267       603.02
   98      209.747       603.16
   99      210.226       602.84
  100      210.705       602.54
  101      211.185        602.8
  102      211.664       603.36
  103      212.143       603.28
  104      212.622       602.62
  105      213.101       601.64
  106      213.579        600.8
  107      214.058        600.1
  108      214.537       599.96
  109      215.016        600.6
  110      215.494       601.58
  111      215.973       602.42
  112      216.452       602.68
  113       216.93       602.08
  114      217.408       600.96
  115      217.887       599.98
  116      218.365       599.42
  117      218.843        599.1
  118      219.321        599.1
  119      219.799        599.3
  120      220.278       599.34
  121      220.755        598.6
  122      221.233       598.04
  123      221.711       598.24
  124      222.189        598.1
  125      222.667       597.18
  126      223.144       596.66
  127      223.622       596.76
  128        224.1       596.76
  129      224.577        597.5
  130      225.055       599.18
  131      225.532        600.8
  132      226.009       601.82
  133      226.486       602.32
  134      226.964        601.9
  135      227.441        601.1
  136      227.918        600.1
  137      228.395       599.16
  138      228.872        598.5
  139      229.349       598.28
  140      229.826       598.24
  141      230.302       598.62
  142      230.779       599.04
  143      231.256       599.52
  144      231.732       599.88
  145      232.209       600.14
  146      232.685       600.34
  147      233.162        600.5
  148      233.638       600.68
  149      234.114       600.98
  150       234.59       600.94
  151      235.066       600.66
  152      235.543        600.5
  153      236.019       599.92
  154      236.495       599.14
  155       236.97       598.74
  156      237.446       598.74
  157      237.922       598.84
  158      238.398       599.28
  159      238.873       600.18
  160      239.349       600.94
  161      239.824       601.08
  162        240.3        600.7
  163      240.775       599.94
  164      241.251       598.88
  165      241.726       598.08
  166      242.201       597.22
  167      242.676       596.42
  168      243.151       596.22
  169      243.626        595.9
  170      244.101        596.1
  171      244.576       596.98
  172      245.051       597.78
  173      245.526       598.08
  174          246       598.08
  175      246.475       597.66
  176       246.95       597.04
  177      247.424       597.18
  178      247.899        598.1
  179      248.373       599.38
  180      248.847        600.1
  181      249.321       600.32
  182      249.796       600.18
  183       250.27       599.46
  184      250.744       598.96
  185      251.218       598.94
  186      251.692       599.34
  187      252.166        599.7
  188      252.639        600.4
  189      253.113       600.74
  190      253.587       600.58
  191       254.06       600.04
  192      254.534       599.36
  193      255.007       598.24
  194      255.481       597.12
  195      255.954        596.6
  196      256.427       596.44
  197      256.901       596.06
  198      257.374       595.76
  199      257.847       595.66
  200       258.32       595.04
  201      258.793       594.74
  202      259.266       595.16
  203      259.739       595.52
  204      260.211       596.06
  205      260.684       597.28
  206      261.157       598.62
  207      261.629       599.54
  208      262.102       600.36
  209      262.574       600.92
  210      263.046       600.94
  211      263.519       600.38
  212      263.991       599.84
  213      264.463       599.92
  214      264.935       600.32
  215      265.407        600.6
  216      265.879       601.04
  217      266.351       601.72
  218      266.823       601.72
  219      267.295       600.68
  220      267.766       599.66
  221      268.238        599.3
  222       268.71       598.96
  223      269.181       598.72
  224      269.653       599.16
  225      270.124       599.84
  226      270.595       599.62
  227      271.066       599.02
  228      271.538       598.98
  229      272.009       599.14
  230       272.48       599.18
  231      272.951       599.62
  232      273.422       600.08
  233      273.892       600.12
  234      274.363       600.04
  235      274.834       599.62
  236      275.305        598.8
  237      275.775        597.6
  238      276.246       596.48
  239      276.716       595.68
  240      277.186        595.8
  241      277.657       596.52
  242      278.127       597.94
  243      278.597       599.74
  244      279.067        601.3
  245      279.537       602.14
  246      280.007        602.4
  247      280.477       602.42
  248      280.947       602.02
  249      281.417        601.4
  250      281.886       601.44
  251      282.356       602.36
  252      282.825       602.88
  253      283.295       602.96
  254      283.764       603.18
  255      284.234       603.16
  256      284.703       602.52
  257      285.172       601.84
  258      285.641       601.26
  259       286.11       600.24
  260      286.579       598.74
  261      287.048       597.22
  262      287.517       596.14
  263      287.986       595.48
  264      288.454       595.54
  265      288.923       596.38
  266      289.392       597.16
  267       289.86          598
  268      290.329       598.98
  269      290.797       599.88
  270      291.265       600.14
  271      291.734       599.96
  272      292.202       599.44
  273       292.67       598.76
  274      293.138       597.96
  275      293.606       597.48
  276      294.074       597.44
  277      294.541       597.68
  278      295.009        598.3
  279      295.477       599.08
  280      295.944       599.68
  281      296.412       600.32
  282      296.879        601.2
  283      297.347       601.84
  284      297.814       601.78
  285      298.281       601.56
  286      298.749       601.52
  287      299.216       600.78
  288      299.683       599.38
  289       300.15       598.26
  290      300.616       597.44
  291      301.083       596.94
  292       301.55       597.36
  293      302.017       598.46
  294      302.483       599.48
  295       302.95       600.52
  296      303.416       600.74
  297      303.883       600.42
  298      304.349       600.02
  299      304.815       599.68
  300      305.281       599.48
  301      305.748       599.56
  302      306.214        599.3
  303       306.68       598.64
  304      307.146        598.7
  305      307.611       598.52
  306      308.077       598.02
  307      308.543       597.78
  308      309.008       597.74
  309      309.474        597.3
  310      309.939       597.08
  311      310.405        597.7
  312       310.87       598.78
  313      311.335       599.54
  314        311.8       600.04
  315      312.266       600.78
  316      312.731       601.36
  317      313.196       601.54
  318       313.66       601.52
  319      314.125       601.44
  320       314.59       601.06
  321      315.055       600.48
  322      315.519       599.84
  323      315.984       599.14
  324      316.448        598.2
  325      316.913       597.34
  326      317.377       596.72
  327      317.841       596.38
  328      318.305       596.82
  329      318.769        597.9
  330      319.233       598.82
  331      319.697       599.42
  332      320.161        599.9
  333      320.625       600.22
  334      321.089          600
  335      321.552        599.9
  336      322.016       599.98
  337      322.479       600.36
  338      322.943       600.72
  339      323.406       601.02
  340      323.869       601.08
  341      324.333       600.66
  342      324.796       599.82
  343      325.259        598.9
  344      325.722       598.22
  345      326.185        597.9
  346      326.647       597.98
  347       327.11       598.32
  348      327.573          599
  349      328.035       599.58
  350      328.498        599.6
  351       328.96       599.34
  352      329.423          599
  353      329.885        598.1
  354      330.347       597.48
  355       330.81        597.7
  356      331.272       598.24
  357      331.734       598.62
  358      332.196       599.56
  359      332.657       600.52
  360      333.119        600.3
  361      333.581       599.64
  362      334.043       599.28
  363      334.504       598.62
  364      334.966       597.82
  365      335.427       597.58
  366      335.888       597.84
  367       336.35       598.12
  368      336.811       598.72
  369      337.272       599.72
  370      337.733       600.44
  371      338.194       600.62
  372      338.655       600.62
  373      339.115       600.46
  374      339.576       600.04
  375      340.037       599.92
  376      340.497       599.74
  377      340.958       598.94
  378      341.418        597.8
  379      341.879       597.22
  380      342.339       597.32
  381      342.799       597.76
  382      343.259       598.78
  383      343.719       600.12
  384      344.179       600.66
  385      344.639        600.2
  386      345.099       599.54
  387      345.559        599.1
  388      346.018       598.48
  389      346.478       597.58
  390      346.937       597.06
  391      347.397       597.02
  392      347.856        596.7
  393      348.315       596.38
  394      348.774        596.4
  395      349.234       596.36
  396      349.693       596.54
  397      350.152       596.92
  398       350.61       597.42
  399      351.069       597.98
  400      351.528       598.66
  401      351.987       599.14
  402      352.445       599.88
  403      352.904       600.76
  404      353.362       601.32
  405       353.82       601.78
  406      354.279       601.98
  407      354.737       601.38
  408      355.195       600.34
  409      355.653       599.58
  410      356.111       598.46
  411      356.569        597.2
  412      357.027       596.46
  413      357.484       596.26
  414      357.942       596.32
  415      358.399       596.62
  416      358.857       597.32
  417      359.314       598.02
  418      359.772       598.06
  419      360.229       598.18
  420      360.686       598.44
  421      361.143       598.52
  422        361.6       598.32
  423      362.057       598.54
  424      362.514       598.72
  425      362.971       598.94
  426      363.427        599.2
  427      363.884       599.74
  428       364.34       599.66
  429      364.797       599.26
  430      365.253       599.32
  431      365.709       599.04
  432      366.166       598.84
  433      366.622       599.88
  434      367.078       600.72
  435      367.534       600.88
  436       367.99       601.12
  437      368.445        601.2
  438      368.901       600.92
  439      369.357       600.74
  440      369.812       600.44
  441      370.268       600.14
  442      370.723       599.32
  443      371.179       598.24
  444      371.634       597.88
  445      372.089        597.8
  446      372.544       597.92
  447      372.999       598.24
  448      373.454       598.52
  449      373.909       598.88
  450      374.364       599.22
  451      374.818        599.2
  452      375.273       599.42
  453      375.727        599.7
  454      376.182       599.16
  455      376.636       598.36
  456       377.09        597.8
  457      377.545       597.16
  458      377.999       596.52
  459      378.453       596.24
  460      378.907       596.26
  461      379.361       596.86
  462      379.814        598.1
  463      380.268       599.66
  464      380.722       600.84
  465      381.175       601.34
  466      381.629       601.08
  467      382.082       600.62
  468      382.535       599.96
  469      382.989       599.72
  470      383.442       600.04
  471      383.895        600.2
  472      384.348       599.88
  473      384.801        599.3
  474      385.253       598.06
  475      385.706       596.84
  476      386.159       596.46
  477      386.611       596.32
  478      387.064       596.12
  479      387.516       596.58
  480      387.968        597.2
  481      388.421       597.44
  482      388.873       597.42
  483      389.325       597.66
  484      389.777       598.24
  485      390.229       599.36
  486      390.681       600.38
  487      391.132       601.28
  488      391.584       602.06
  489      392.035       602.34
  490      392.487       601.92
  491      392.938       601.36
  492       393.39       601.26
  493      393.841        601.5
  494      394.292       601.56
  495      394.743       602.12
  496      395.194       603.16
  497      395.645       603.76
  498      396.096       603.72
  499      396.546        603.6
  500      396.997        602.8
  501      397.448       600.92
  502      397.898       598.88
  503      398.349       597.24
  504      398.799          596
  505      399.249       595.78
  506      399.699        597.1
  507      400.149       599.04
  508      400.599       601.02
  509      401.049       602.52
  510      401.499       603.22
  511      401.949        602.8
  512      402.398       601.94
  513      402.848       600.82
  514      403.297       600.24
  515      403.747       600.06
  516      404.196       600.14
  517      404.645       600.12
  518      405.094        600.3
  519      405.543        600.5
  520      405.992       600.38
  521      406.441       599.92
  522       406.89       599.52
  523      407.339          599
  524      407.787          598
  525      408.236        597.3
  526      408.684        597.7
  527      409.132       598.62
  528      409.581        599.4
  529      410.029       600.64
  530      410.477       601.74
  531      410.925       602.22
  532      411.373       602.26
  533      411.821       602.28
  534      412.269       602.28
  535      412.716       602.16
  536      413.164        602.2
  537      413.611       602.48
  538      414.059       602.86
  539      414.506       602.86
  540      414.953        602.4
  541        415.4       601.62
  542      415.847       601.24
  543      416.294       600.98
  544      416.741       600.74
  545      417.188       600.76
  546      417.635          601
  547      418.081       601.12
  548      418.528       601.68
  549      418.974       602.24
  550      419.421        603.1
  551      419.867       603.76
  552      420.313       603.84
  553      420.759        603.8
  554      421.205       603.78
  555      421.651       603.46
  556      422.097       603.54
  557      422.543       604.34
  558      422.989       605.28
  559      423.434       606.36
  560       423.88       607.22
  561      424.325        607.8
  562       424.77          608
  563      425.216       607.94
  564      425.661        607.6
  565      426.106       607.28
  566      426.551       607.02
  567      426.996       606.96
  568       427.44       606.84
  569      427.885       606.68
  570       428.33       606.52
  571      428.774       606.48
  572      429.219       606.56
  573      429.663       606.62
  574      430.107       606.66
  575      430.551        607.1
  576      430.996       608.12
  577       431.44        609.2
  578      431.883       609.94
  579      432.327       611.36
  580      432.771       613.02
  581      433.215       614.06
  582      433.658       615.02
  583      434.102       616.58
  584      434.545       617.06
  585      434.988       616.32
  586      435.431       615.46
  587      435.875       614.38
  588      436.318       613.16
  589      436.761       613.36
  590      437.203       615.04
  591      437.646       616.86
  592      438.089       618.88
  593      438.531       620.88
  594      438.974       622.58
  595      439.416       623.88
  596      439.859        625.3
  597      440.301        626.5
  598      440.743       627.62
  599      441.185       629.16
  600      441.627        630.5
  601      442.069       631.76
  602       442.51       633.62
  603      442.952       635.58
  604      443.394       636.78
  605      443.835       637.86
  606      444.277       638.76
  607      444.718        638.6
  608      445.159       638.16
  609        445.6       637.78
  610      446.041       638.08
  611      446.482        639.6
  612      446.923       642.18
  613      447.364        645.5
  614      447.804       648.94
  615      448.245       651.92
  616      448.685       653.72
  617      449.126       654.84
  618      449.566       655.54
  619      450.006       656.32
  620      450.447        657.5
  621      450.887       659.18
  622      451.326        660.7
  623      451.766       662.18
  624      452.206       664.48
  625      452.646       667.14
  626      453.085        669.3
  627      453.525       671.42
  628      453.964       673.28
  629      454.403       674.46
  630      454.843       675.68
  631      455.282       677.14
  632      455.721       678.24
  633       456.16       679.36
  634      456.599       679.88
  635      457.037       679.24
  636      457.476       678.62
  637      457.915       678.42
  638      458.353       677.64
  639      458.791        677.2
  640       459.23       677.32
  641      459.668       677.22
  642      460.106       677.44
  643      460.544          678
  644      460.982       678.56
  645       461.42       678.74
  646      461.857       678.34
  647      462.295       677.54
  648      462.733       677.12
  649       463.17       675.74
  650      463.607       673.22
  651      464.045        671.1
  652      464.482        669.2
  653      464.919       667.12
  654      465.356       665.76
  655      465.793       665.78
  656       466.23       666.18
  657      466.666        666.7
  658      467.103       667.42
  659      467.539       667.66
  660      467.976       667.12
  661      468.412       665.86
  662      468.848       664.44
  663      469.284        662.9
  664       469.72       661.44
  665      470.156       660.36
  666      470.592        659.5
  667      471.028       658.48
  668      471.464        657.5
  669      471.899        657.1
  670      472.335       657.46
  671       472.77       657.64
  672      473.205        657.7
  673      473.641       657.18
  674      474.076       655.56
  675      474.511       652.94
  676      474.946       650.88
  677       475.38       649.88
  678      475.815       649.08
  679       476.25        648.7
  680      476.684       648.76
  681      477.119       648.78
  682      477.553       648.14
  683      477.987        647.7
  684      478.421       648.02
  685      478.856       648.42
  686      479.289        648.4
  687      479.723       647.96
  688      480.157        647.6
  689      480.591        646.9
  690      481.024       645.92
  691      481.458       645.16
  692      481.891       644.38
  693      482.324       643.72
  694      482.758       643.96
  695      483.191       644.76
  696      483.624        645.9
  697      484.057       647.34
  698      484.489        648.5
  699      484.922       649.36
  700      485.355       649.96
  701      485.787       649.98
  702       486.22       649.74
  703      486.652        649.7
  704      487.084       649.56
  705      487.516       649.72
  706      487.948       650.66
  707       488.38       652.18
  708      488.812       654.12
  709      489.244       656.02
  710      489.676        657.6
  711      490.107       658.32
  712      490.539       658.64
  713       490.97        658.2
  714      491.401       657.04
  715      491.832       655.76
  716      492.263       655.26
  717      492.694          655
  718      493.125       654.94
  719      493.556          655
  720      493.987        654.7
  721      494.417        654.4
  722      494.848       654.52
  723      495.278       655.32
  724      495.708       656.74
  725      496.139       658.74
  726      496.569       660.34
  727      496.999       661.42
  728      497.429       662.08
  729      497.858        662.8
  730      498.288       664.04
  731      498.718       665.14
  732      499.147       666.34
  733      499.577       667.68
  734      500.006        668.7
  735      500.435       669.28
  736      500.864       669.74
  737      501.293       669.98
  738      501.722       669.86
  739      502.151        669.9
  740       502.58        670.3
  741      503.008       670.82
  742      503.437       670.66
  743      503.865       670.78
  744      504.293        671.5
  745      504.722       672.08
  746       505.15        673.2
  747      505.578       675.52
  748      506.006       677.46
  749      506.434       678.52
  750      506.861        679.5
  751      507.289       680.36
  752      507.716       680.48
  753      508.144       680.58
  754      508.571       680.98
  755      508.998       681.22
  756      509.425       681.32
  757      509.852        681.8
  758      510.279       682.46
  759      510.706       683.24
  760      511.133       684.06
  761       511.56        684.9
  762      511.986       686.02
  763      512.412       687.44
  764      512.839       688.42
  765      513.265        688.5
  766      513.691       688.28
  767      514.117        688.2
  768      514.543       687.88
  769      514.969       687.72
  770      515.395        688.4
  771       515.82       689.12
  772      516.246       689.04
  773      516.671       688.68
  774      517.096       688.36
  775      517.522       688.16
  776      517.947        688.4
  777      518.372       689.08
  778      518.797       689.98
  779      519.222       690.68
  780      519.646       691.12
  781      520.071        691.2
  782      520.495          691
  783       520.92       691.38
  784      521.344       692.14
  785      521.768       692.56
  786      522.192       692.72
  787      522.616       693.26
  788       523.04       693.58
  789      523.464       693.54
  790      523.888       693.52
  791      524.311       694.16
  792      524.735       694.92
  793      525.158        695.5
  794      525.581       696.02
  795      526.005       696.68
  796      526.428       696.94
  797      526.851       696.94
  798      527.274       696.96
  799      527.696       696.98
  800      528.119       696.52
  801      528.542        695.8
  802      528.964       695.14
  803      529.386       694.28
  804      529.809       694.16
  805      530.231       695.22
  806      530.653       696.58
  807      531.075       697.46
  808      531.497       698.36
  809      531.918       698.66
  810       532.34        698.2
  811      532.761        697.6
  812      533.183        697.4
  813      533.604       697.82
  814      534.025       698.54
  815      534.447       699.28
  816      534.868       699.72
  817      535.289       699.96
  818      535.709       699.92
  819       536.13       699.64
  820      536.551       699.24
  821      536.971       699.14
  822      537.392        699.6
  823      537.812       699.38
  824      538.232       699.08
  825      538.652       699.44
  826      539.072       699.76
  827      539.492       699.78
  828      539.912       700.02
  829      540.331       699.88
  830      540.751       699.22
  831       541.17       698.58
  832       541.59       697.98
  833      542.009       697.22
  834      542.428       696.68
  835      542.847        696.8
  836      543.266        697.4
  837      543.685       697.32
  838      544.104       697.46
  839      544.522       697.54
  840      544.941          697
  841      545.359       696.02
  842      545.778        695.3
  843      546.196        694.8
  844      546.614       694.84
  845      547.032       695.04
  846       547.45        695.1
  847      547.867       695.28
  848      548.285       695.46
  849      548.703       695.52
  850       549.12       695.38
  851      549.538       695.44
  852      549.955       696.02
  853      550.372       696.52
  854      550.789       697.08
  855      551.206       698.32
  856      551.623        699.7
  857      552.039       700.82
  858      552.456       702.04
  859      552.873       703.06
  860      553.289       703.96
  861      553.705       705.16
  862      554.121       706.52
  863      554.537       707.88
  864      554.953        709.2
  865      555.369        710.6
  866      555.785       712.06
  867      556.201       712.98
  868      556.616       713.72
  869      557.032       714.72
  870      557.447       715.22
  871      557.862       715.34
  872      558.277       716.32
  873      558.692       717.68
  874      559.107       718.82
  875      559.522       719.46
  876      559.937       719.58
  877      560.351       719.12
  878      560.766       719.14
  879       561.18       719.72
  880      561.595       720.88
  881      562.009       721.86
  882      562.423       722.82
  883      562.837       723.28
  884       563.25       723.24
  885      563.664       723.66
  886      564.078       725.34
  887      564.491       727.42
  888      564.905       728.88
  889      565.318       729.96
  890      565.731        730.4
  891      566.144       730.38
  892      566.557       730.14
  893       566.97       729.84
  894      567.383       729.42
  895      567.795       729.06
  896      568.208        728.5
  897       568.62       727.54
  898      569.033       727.44
  899      569.445       727.84
  900      569.857       728.04
  901      570.269        728.4
  902      570.681       729.04
  903      571.093        729.1
  904      571.504       729.64
  905      571.916       731.06
  906      572.327        732.9
  907      572.739        735.1
  908       573.15       737.46
  909      573.561       738.84
  910      573.972        739.7
  911      574.383       740.42
  912      574.794       740.86
  913      575.204       741.22
  914      575.615        742.1
  915      576.025       742.78
  916      576.436       743.54
  917      576.846       744.44
  918      577.256       745.82
  919      577.666       747.38
  920      578.076       748.96
  921      578.486       749.98
  922      578.896       750.44
  923      579.305       750.14
  924      579.715       749.38
  925      580.124        748.8
  926      580.533        748.5
  927      580.942       748.22
  928      581.351       748.24
  929       581.76       748.52
  930      582.169       748.52
  931      582.578       748.28
  932      582.986       748.04
  933      583.395       747.32
  934      583.803        746.4
  935      584.212       745.84
  936       584.62       745.64
  937      585.028       745.68
  938      585.436       746.02
  939      585.843        746.3
  940      586.251       746.08
  941      586.659       745.54
  942      587.066       744.96
  943      587.474       743.94
  944      587.881       742.66
  945      588.288       741.82
  946      588.695        741.1
  947      589.102       740.36
  948      589.509       740.06
  949      589.915       739.96
  950      590.322       739.36
  951      590.728       738.98
  952      591.135       739.14
  953      591.541       739.56
  954      591.947       739.68
  955      592.353       739.52
  956      592.759       738.92
  957      593.165       738.32
  958      593.571       737.62
  959      593.976       737.56
  960      594.382       738.36
  961      594.787       739.14
  962      595.192       739.24
  963      595.597       739.28
  964      596.002       739.06
  965      596.407       738.46
  966      596.812       737.78
  967      597.217       736.94
  968      597.621        735.9
  969      598.026        734.7
  970       598.43       733.42
  971      598.834       731.98
  972      599.238       730.46
  973      599.642        729.4
  974      600.046       728.88
  975       600.45       729.08
  976      600.854       729.68
  977      601.257       730.56
  978      601.661        731.2
  979      602.064       731.24
  980      602.467        730.7
  981       602.87       730.04
  982      603.273        729.5
  983      603.676       727.94
  984      604.079       726.34
  985      604.481       724.84
  986      604.884       722.66
  987      605.286       720.96
  988      605.689        720.4
  989      606.091        719.7
  990      606.493       718.96
  991      606.895       718.98
  992      607.297       718.94
  993      607.698       719.12
  994        608.1       719.76
  995      608.501       720.44
  996      608.903       720.96
  997      609.304       720.92
  998      609.705        720.6
  999      610.106       720.16
 1000      610.507       718.98
 1001      610.908       717.76
 1002      611.308        716.9
 1003      611.709       715.94
 1004      612.109       714.98
 1005       612.51       714.04
 1006       612.91       712.84
 1007       613.31       711.64
 1008       613.71       710.68
 1009       614.11       709.82
 1010       614.51       709.76
 1011      614.909       710.14
 1012      615.309       710.26
 1013      615.708       710.22
 1014      616.108       709.98
 1015      616.507       709.58
 1016      616.906       708.88
 1017      617.305       707.72
 1018      617.704       706.48
 1019      618.102        705.6
 1020      618.501        704.9
 1021      618.899       704.06
 1022      619.298       703.48
 1023      619.696       703.14
 1024      620.094       702.48
 1025      620.492       701.42
 1026       620.89       701.08
 1027      621.288       701.36
 1028      621.686       701.14
 1029      622.083       700.32
 1030       622.48        699.6
 1031      622.878       698.44
 1032      623.275       696.54
 1033      623.672       694.98
 1034      624.069       694.48
 1035      624.466       693.88
 1036      624.863       692.66
 1037      625.259       691.48
 1038      625.656       690.34
 1039      626.052        688.9
 1040      626.448       687.86
 1041      626.844       688.16
 1042      627.241       689.08
 1043      627.636       689.38
 1044      628.032       688.94
 1045      628.428       688.14
 1046      628.823       686.64
 1047      629.219       684.48
 1048      629.614       682.94
 1049      630.009       682.28
 1050      630.404        681.6
 1051      630.799       680.46
 1052      631.194       679.54
 1053      631.589       678.48
 1054      631.984       677.24
 1055      632.378       675.96
 1056      632.772       674.88
 1057      633.167          674
 1058      633.561       673.26
 1059      633.955       673.16
 1060      634.349        673.3
 1061      634.743       673.78
 1062      635.136       673.72
 1063       635.53       672.82
 1064      635.923        671.2
 1065      636.316       669.54
 1066       636.71       667.86
 1067      637.103       666.66
 1068      637.496        666.3
 1069      637.888       666.12
 1070      638.281       665.96
 1071      638.674       665.44
 1072      639.066       665.02
 1073      639.459       665.12
 1074      639.851       665.24
 1075      640.243       665.08
 1076      640.635       664.58
 1077      641.027       663.24
 1078      641.419       661.04
 1079       641.81       659.22
 1080      642.202       657.98
 1081      642.593       657.38
 1082      642.984       657.38
 1083      643.375       657.02
 1084      643.766       655.96
 1085      644.157       655.08
 1086      644.548       654.36
 1087      644.939       654.08
 1088      645.329       654.32
 1089       645.72       654.44
 1090       646.11       654.12
 1091        646.5       653.84
 1092       646.89       653.22
 1093       647.28       652.66
 1094       647.67       652.54
 1095       648.06       651.96
 1096      648.449       650.58
 1097      648.839          649
 1098      649.228       647.22
 1099      649.617       645.28
 1100      650.007       643.88
 1101      650.396       643.26
 1102      650.784       642.92
 1103      651.173       643.24
 1104      651.562       643.54
 1105       651.95        643.7
 1106      652.339       643.86
 1107      652.727        643.9
 1108      653.115       643.18
 1109      653.503       642.46
 1110      653.891       641.96
 1111      654.279        641.1
 1112      654.666       640.02
 1113      655.054       639.64
 1114      655.441       639.76
 1115      655.828       639.86
 1116      656.216       639.56
 1117      656.603        639.5
 1118      656.989       639.16
 1119      657.376       638.16
 1120      657.763       636.96
 1121      658.149        636.4
 1122      658.536       635.88
 1123      658.922       635.64
 1124      659.308        635.9
 1125      659.694       636.04
 1126       660.08        636.2
 1127      660.466       636.68
 1128      660.852       636.54
 1129      661.237       635.92
 1130      661.623       635.58
 1131      662.008       635.44
 1132      662.393       634.94
 1133      662.778       634.44
 1134      663.163       633.74
 1135      663.548       632.64
 1136      663.933       631.38
 1137      664.317        630.3
 1138      664.702        629.3
 1139      665.086       628.96
 1140       665.47       629.16
 1141      665.854       629.26
 1142      666.238       628.62
 1143      666.622       627.96
 1144      667.006       627.62
 1145      667.389       627.16
 1146      667.773       626.72
 1147      668.156        626.8
 1148      668.539       626.96
 1149      668.923       626.62
 1150      669.305       626.12
 1151      669.688        625.4
 1152      670.071       625.06
 1153      670.454       625.24
 1154      670.836       625.62
 1155      671.218       626.44
 1156      671.601       627.34
 1157      671.983       627.28
 1158      672.365       626.32
 1159      672.747       625.38
 1160      673.128       624.08
 1161       673.51       622.94
 1162      673.891       622.86
 1163      674.273       623.18
 1164      674.654       622.96
 1165      675.035       622.44
 1166      675.416       622.14
 1167      675.797       621.64
 1168      676.177       621.42
 1169      676.558       621.36
 1170      676.938        621.7
 1171      677.319       621.92
 1172      677.699       621.64
 1173      678.079        620.9
 1174      678.459       619.96
 1175      678.839          619
 1176      679.219       618.16
 1177      679.598       617.88
 1178      679.978        617.9
 1179      680.357       617.96
 1180      680.736       617.88
 1181      681.115       617.98
 1182      681.494       618.14
 1183      681.873       618.04
 1184      682.252       618.62
 1185       682.63       619.88
 1186      683.009       620.64
 1187      683.387       620.16
 1188      683.765       619.28
 1189      684.143       618.46
 1190      684.521       617.14
 1191      684.899       615.88
 1192      685.277       615.54
 1193      685.654       615.72
 1194      686.032        615.4
 1195      686.409        614.9
 1196      686.786       614.04
 1197      687.163       612.68
 1198       687.54       611.62
 1199      687.917       611.02
 1200      688.294       610.92
 1201       688.67       611.32
 1202      689.046       611.76
 1203      689.423       611.72
 1204      689.799        611.9
 1205      690.175       612.08
 1206      690.551          612
 1207      690.927       612.52
 1208      691.302       613.14
 1209      691.678       613.26
 1210      692.053        612.9
 1211      692.428       612.38
 1212      692.804       611.82
 1213      693.179       611.32
 1214      693.553       610.94
 1215      693.928        610.7
 1216      694.303       610.62
 1217      694.677       610.64
 1218      695.052          611
 1219      695.426       610.84
 1220        695.8       610.52
 1221      696.174       610.44
 1222      696.548       609.74
 1223      696.921       608.56
 1224      697.295       607.94
 1225      697.669       607.46
 1226      698.042       607.04
 1227      698.415       607.56
 1228      698.788       608.36
 1229      699.161        608.9
 1230      699.534        609.3
 1231      699.907       609.48
 1232      700.279       608.96
 1233      700.652       608.52
 1234      701.024       608.38
 1235      701.396       608.38
 1236      701.768       608.54
 1237       702.14        608.8
 1238      702.512       608.52
 1239      702.883       607.44
 1240      703.255       606.46
 1241      703.626       605.74
 1242      703.998       605.48
 1243      704.369       605.76
 1244       704.74        606.1
 1245      705.111       606.02
 1246      705.481       605.16
 1247      705.852       604.06
 1248      706.222       603.24
 1249      706.593          603
 1250      706.963          603
 1251      707.333       603.88
 1252      707.703        604.8
 1253      708.073        605.2
 1254      708.442        605.5
 1255      708.812        605.8
 1256      709.181       605.36
 1257      709.551       604.54
 1258       709.92       604.08
 1259      710.289        604.1
 1260      710.658        604.1
 1261      711.027       604.56
 1262      711.395       605.14
 1263      711.764        605.1
 1264      712.132        604.5
 1265        712.5        604.1
 1266      712.869       603.62
 1267      713.236        603.5
 1268      713.604       603.84
 1269      713.972       604.12
 1270       714.34       604.32
 1271      714.707       604.56
 1272      715.074       604.84
 1273      715.442       604.94
 1274      715.809       604.82
 1275      716.176       604.74
 1276      716.542       604.66
 1277      716.909       604.28
 1278      717.276       604.22
 1279      717.642       604.62
 1280      718.008       604.98
 1281      718.374       605.56
 1282       718.74       605.96
 1283      719.106       605.62
 1284      719.472       605.28
 1285      719.838        605.2
 1286      720.203        604.9
 1287      720.568       604.42
 1288      720.934       604.82
 1289      721.299       605.12
 1290      721.664       604.92
 1291      722.029       605.24
 1292      722.393       606.02
 1293      722.758       606.26
 1294      723.122       605.82
 1295      723.486       605.22
 1296      723.851        603.4
 1297      724.215       601.58
 1298      724.578       600.32
 1299      724.942        600.1
 1300      725.306       600.86
 1301      725.669       601.48
 1302      726.033       601.98
 1303      726.396       602.48
 1304      726.759       602.68
 1305      727.122       602.24
 1306      727.485       602.24
 1307      727.847       601.94
 1308       728.21       601.42
 1309      728.572       600.86
 1310      728.935       600.68
 1311      729.297       600.92
 1312      729.659       601.06
 1313      730.021       600.74
 1314      730.382       600.62
 1315      730.744       600.28
 1316      731.105       600.06
 1317      731.467       600.42
 1318      731.828       601.24
 1319      732.189        601.9
 1320       732.55       602.58
 1321      732.911       602.68
 1322      733.271       602.26
 1323      733.632       601.62
 1324      733.992        601.1
 1325      734.352        600.4
 1326      734.713       599.82
 1327      735.072       599.22
 1328      735.432       598.88
 1329      735.792       598.76
 1330      736.152       598.78
 1331      736.511       599.14
 1332       736.87       599.72
 1333      737.229        599.6
 1334      737.589       598.96
 1335      737.947       598.38
 1336      738.306       597.72
 1337      738.665       597.12
 1338      739.023       597.06
 1339      739.382        597.6
 1340       739.74       598.22
 1341      740.098       599.02
 1342      740.456        600.1
 1343      740.814       601.18
 1344      741.171        601.9
 1345      741.529       602.04
 1346      741.886       601.74
 1347      742.244        601.6
 1348      742.601       601.68
 1349      742.958        601.6
 1350      743.314       601.64
 1351      743.671       601.58
 1352      744.028       601.28
 1353      744.384       600.88
 1354       744.74       600.06
 1355      745.097       599.36
 1356      745.453       598.82
 1357      745.809       597.96
 1358      746.164       597.16
 1359       746.52       597.06
 1360      746.875       596.82
 1361      747.231       596.96
 1362      747.586       597.58
 1363      747.941       598.02
 1364      748.296        598.3
 1365      748.651       599.14
 1366      749.005        600.7
 1367       749.36       602.34
 1368      749.714       603.48
 1369      750.069       603.64
 1370      750.423       603.18
 1371      750.777       601.68
 1372       751.13       599.78
 1373      751.484       598.28
 1374      751.838       597.66
 1375      752.191       597.58
 1376      752.544       597.54
 1377      752.897       597.36
 1378       753.25        597.3
 1379      753.603        597.3
 1380      753.956       597.54
 1381      754.309        598.1
 1382      754.661       598.34
 1383      755.013        598.3
 1384      755.365       597.86
 1385      755.717          597
 1386      756.069        596.1
 1387      756.421       595.58
 1388      756.773       595.02
 1389      757.124       595.06
 1390      757.476       595.22
 1391      757.827       595.92
 1392      758.178       597.22
 1393      758.529       599.12
 1394      758.879       600.98
 1395       759.23       602.18
 1396      759.581       602.22
 1397      759.931       601.64
 1398      760.281       600.86
 1399      760.631        600.2
 1400      760.981       600.12
 1401      761.331       600.58
 1402      761.681       600.86
 1403       762.03       601.04
 1404      762.379       601.08
 1405      762.729       600.84
 1406      763.078       600.16
 1407      763.427       599.98
 1408      763.776        600.7
 1409      764.124        601.2
 1410      764.473       600.96
 1411      764.821       600.58
 1412      765.169       599.96
 1413      765.517       598.84
 1414      765.865        598.1
 1415      766.213       597.96
 1416      766.561       597.96
 1417      766.909       598.28
 1418      767.256        598.5
 1419      767.603       598.44
 1420       767.95       598.72
 1421      768.297       599.52
 1422      768.644       599.96
 1423      768.991       599.54
 1424      769.337       598.76
 1425      769.684        598.1
 1426       770.03       597.46
 1427      770.376        596.7
 1428      770.722       595.94
 1429      771.068       595.68
 1430      771.414       595.72
 1431      771.759       596.08
 1432      772.105       596.48
 1433       772.45        596.5
 1434      772.795       596.22
 1435       773.14        595.4
 1436      773.485       594.16
 1437       773.83       593.82
 1438      774.174       594.54
 1439      774.519        595.3
 1440      774.863       595.98
 1441      775.207       596.56
 1442      775.551       596.28
 1443      775.895       596.02
 1444      776.239       596.36
 1445      776.582       596.84
 1446      776.926          597
 1447      777.269       597.62
 1448      777.612       598.96
 1449      777.955        599.7
 1450      778.298       599.96
 1451      778.641       599.92
 1452      778.983       599.54
 1453      779.326        598.1
 1454      779.668       596.42
 1455       780.01       595.52
 1456      780.352        595.5
 1457      780.694       595.72
 1458      781.036       595.88
 1459      781.377       596.14
 1460      781.719       596.26
 1461       782.06        596.5
 1462      782.401       597.16
 1463      782.742        598.7
 1464      783.083       600.44
 1465      783.424        601.8
 1466      783.764       602.84
 1467      784.105       603.02
 1468      784.445        602.6
 1469      784.785       602.24
 1470      785.125       601.74
 1471      785.465       601.04
 1472      785.805       600.52
 1473      786.144       600.02
 1474      786.484       599.48
 1475      786.823        599.1
 1476      787.162       598.76
 1477      787.501       598.94
 1478       787.84       599.32
 1479      788.178       599.22
 1480      788.517       598.94
 1481      788.855        598.6
 1482      789.194       598.08
 1483      789.532        597.6
 1484       789.87        597.9
 1485      790.208       598.72
 1486      790.545       599.36
 1487      790.883        599.4
 1488       791.22       599.32
 1489      791.557       599.04
 1490      791.894       598.46
 1491      792.231       597.84
 1492      792.568       597.82
 1493      792.905       598.26
 1494      793.241        598.6
 1495      793.578       598.94
 1496      793.914       599.64
 1497       794.25       600.36
 1498      794.586        600.1
 1499      794.922        599.2
 1500      795.257       598.18
 1501      795.593        597.1
 1502      795.928       595.62
 1503      796.263       594.64
 1504      796.598       594.42
 1505      796.933       594.42
 1506      797.268       594.54
 1507      797.603       595.06
 1508      797.937        595.6
 1509      798.271        595.4
 1510      798.606       595.24
 1511       798.94       595.42
 1512      799.274       595.46
 1513      799.607       595.66
 1514      799.941       596.74
 1515      800.274        598.1
 1516      800.608       598.88
 1517      800.941        599.4
 1518      801.274       599.68
 1519      801.607       599.84
 1520      801.939        599.8
 1521      802.272       599.66
 1522      802.604       599.58
 1523      802.936       599.64
 1524      803.269       599.46
 1525      803.601       599.22
 1526      803.932       599.12
 1527      804.264        598.8
 1528      804.596       598.16
 1529      804.927       597.56
 1530      805.258       596.72
 1531      805.589       596.24
 1532       805.92       596.58
 1533      806.251        597.4
 1534      806.582       598.04
 1535      806.912       598.68
 1536      807.242       599.02
 1537      807.573       598.76
 1538      807.903       598.24
 1539      808.232       598.12
 1540      808.562       598.32
 1541      808.892       598.82
 1542      809.221       599.94
 1543      809.551       600.74
 1544       809.88       600.52
 1545      810.209       599.76
 1546      810.538       598.94
 1547      810.866       597.54
 1548      811.195       596.58
 1549      811.523       596.56
 1550      811.851       596.86
 1551       812.18       597.12
 1552      812.507       597.48
 1553      812.835       597.82
 1554      813.163       598.26
 1555       813.49       598.92
 1556      813.818       598.86
 1557      814.145        598.2
 1558      814.472       597.72
 1559      814.799       597.46
 1560      815.126          597
 1561      815.452        596.7
 1562      815.779       596.66
 1563      816.105       596.46
 1564      816.431        596.5
 1565      816.757       597.18
 1566      817.083       598.56
 1567      817.409       600.04
 1568      817.734       601.38
 1569       818.06       601.78
 1570      818.385          601
 1571       818.71        599.9
 1572      819.035       599.02
 1573       819.36       597.92
 1574      819.685        596.6
 1575      820.009       596.16
 1576      820.333       595.78
 1577      820.658        594.9
 1578      820.982       594.38
 1579      821.305       594.92
 1580      821.629       595.92
 1581      821.953        596.9
 1582      822.276       597.56
 1583        822.6       597.76
 1584      822.923       597.52
 1585      823.246       596.78
 1586      823.569       596.34
 1587      823.891       596.52
 1588      824.214       596.58
 1589      824.536       596.66
 1590      824.858       596.98
 1591       825.18       597.58
 1592      825.502       598.22
 1593      825.824       598.86
 1594      826.146       599.64
 1595      826.467       600.06
 1596      826.789       599.54
 1597       827.11       598.84
 1598      827.431        598.6
 1599      827.752       598.28
 1600      828.072       598.24
 1601      828.393       598.86
 1602      828.713        599.9
 1603      829.034       600.64
 1604      829.354       600.94
 1605      829.674       600.64
 1606      829.993       599.82
 1607      830.313        599.2
 1608      830.633       599.06
 1609      830.952       599.14
 1610      831.271       599.62
 1611       831.59       600.58
 1612      831.909       601.22
 1613      832.228       600.86
 1614      832.546       599.84
 1615      832.865       598.56
 1616      833.183       597.62
 1617      833.501        596.9
 1618      833.819       596.52
 1619      834.137       596.66
 1620      834.455       596.96
 1621      834.772       597.08
 1622      835.089          597
 1623      835.407       596.82
 1624      835.724       597.02
 1625       836.04       597.42
 1626      836.357       597.28
 1627      836.674       597.48
 1628       836.99       598.78
 1629      837.306       599.62
 1630      837.623       599.86
 1631      837.939        600.1
 1632      838.254       600.56
 1633       838.57       600.76
 1634      838.886       600.66
 1635      839.201       600.52
 1636      839.516       600.08
 1637      839.831       598.86
 1638      840.146       597.48
 1639      840.461       596.76
 1640      840.775       596.66
 1641       841.09       597.78
 1642      841.404       599.42
 1643      841.718       600.68
 1644      842.032        601.7
 1645      842.346       601.82
 1646      842.659        600.5
 1647      842.973       598.78
 1648      843.286       597.74
 1649      843.599       597.02
 1650      843.912          597
 1651      844.225       598.18
 1652      844.538       599.76
 1653      844.851       600.82
 1654      845.163       601.52
 1655      845.475       601.92
 1656      845.787       601.52
 1657      846.099       600.72
 1658      846.411       599.78
 1659      846.723        598.6
 1660      847.034       597.58
 1661      847.345       597.28
 1662      847.657       597.32
 1663      847.968       597.82
 1664      848.278       598.86
 1665      848.589       599.84
 1666        848.9       600.26
 1667       849.21       600.54
 1668       849.52       600.02
 1669       849.83       599.22
 1670       850.14       598.94
 1671       850.45       598.86
 1672      850.759       598.42
 1673      851.069       598.34
 1674      851.378       598.82
 1675      851.687       598.74
 1676      851.996       598.28
 1677      852.305       598.12
 1678      852.614       598.14
 1679      852.922       597.66
 1680       853.23        597.3
 1681      853.539       597.92
 1682      853.847        598.9
 1683      854.154       599.26
 1684      854.462       599.26
 1685       854.77       599.34
 1686      855.077       598.46
 1687      855.384       596.98
 1688      855.691       596.14
 1689      855.998        595.9
 1690      856.305       596.08
 1691      856.612       596.64
 1692      856.918       597.16
 1693      857.224        597.8
 1694       857.53       598.52
 1695      857.836       598.46
 1696      858.142       598.22
 1697      858.448       598.42
 1698      858.753       598.14
 1699      859.059       597.86
 1700      859.364       598.44
 1701      859.669       599.22
 1702      859.974       600.04
 1703      860.278       601.42
 1704      860.583       602.52
 1705      860.887        602.9
 1706      861.192       603.36
 1707      861.496        603.3
 1708        861.8       602.38
 1709      862.103       601.68
 1710      862.407        601.3
 1711       862.71       600.64
 1712      863.014       600.18
 1713      863.317       600.02
 1714       863.62       599.82
 1715      863.922       599.86
 1716      864.225          600
 1717      864.527       600.12
 1718       864.83       600.68
 1719      865.132        600.9
 1720      865.434       600.58
 1721      865.736        600.3
 1722      866.037       600.16
 1723      866.339       599.98
 1724       866.64        599.8
 1725      866.941       599.98
 1726      867.242        600.3
 1727      867.543       600.06
 1728      867.844       599.86
 1729      868.145       599.72
 1730      868.445       599.26
 1731      868.745       598.76
 1732      869.045       598.46
 1733      869.345       597.82
 1734      869.645       597.38
 1735      869.944       597.26
 1736      870.244        596.9
 1737      870.543       597.16
 1738      870.842       597.66
 1739      871.141       598.04
 1740       871.44       598.56
 1741      871.739       599.24
 1742      872.037       599.84
 1743      872.335       600.06
 1744      872.634        599.9
 1745      872.931       599.12
 1746      873.229       598.06
 1747      873.527        597.1
 1748      873.824       597.04
 1749      874.122       597.46
 1750      874.419       597.74
 1751      874.716       598.02
 1752      875.013       598.22
 1753      875.309       598.66
 1754      875.606          599
 1755      875.902       599.62
 1756      876.199        600.7
 1757      876.495       601.44
 1758       876.79        600.6
 1759      877.086       599.42
 1760      877.382        598.6
 1761      877.677       597.88
 1762      877.972       598.02
 1763      878.267       599.56
 1764      878.562       601.04
 1765      878.857        601.8
 1766      879.152          602
 1767      879.446       601.52
 1768       879.74       600.16
 1769      880.034       598.88
 1770      880.328       597.72
 1771      880.622       596.26
 1772      880.916        594.7
 1773      881.209       593.94
 1774      881.502       593.84
 1775      881.795       594.28
 1776      882.088       595.26
 1777      882.381       596.36
 1778      882.674        596.9
 1779      882.966       596.88
 1780      883.258       596.92
 1781      883.551       597.74
 1782      883.843       598.48
 1783      884.134        598.7
 1784      884.426       598.88
 1785      884.717       599.16
 1786      885.009       598.48
 1787        885.3       597.86
 1788      885.591        597.7
 1789      885.882       598.06
 1790      886.172       598.36
 1791      886.463       598.64
 1792      886.753       598.58
 1793      887.043       598.34
 1794      887.333        597.3
 1795      887.623       596.32
 1796      887.913       596.48
 1797      888.202       597.12
 1798      888.492       597.68
 1799      888.781       598.76
 1800       889.07       599.22
 1801      889.359       598.76
 1802      889.647       597.96
 1803      889.936       597.38
 1804      890.224        597.1
 1805      890.512       597.78
 1806        890.8       598.64
 1807      891.088        599.2
 1808      891.376          600
 1809      891.663       600.56
 1810      891.951        600.4
 1811      892.238        599.7
 1812      892.525       599.08
 1813      892.812       598.68
 1814      893.099       598.28
 1815      893.385        597.7
 1816      893.671        597.8
 1817      893.958       598.44
 1818      894.244       598.74
 1819       894.53       599.24
 1820      894.815       600.12
 1821      895.101        600.3
 1822      895.386       599.98
 1823      895.671        599.7
 1824      895.956        599.3
 1825      896.241       598.62
 1826      896.526       598.16
 1827       896.81       598.52
 1828      897.095       599.08
 1829      897.379       599.42
 1830      897.663       600.06
 1831      897.947        600.6
 1832      898.231          600
 1833      898.514        599.1
 1834      898.798       598.14
 1835      899.081       596.68
 1836      899.364       595.42
 1837      899.647       595.08
 1838      899.929       595.02
 1839      900.212        595.2
 1840      900.494       596.16
 1841      900.776        597.5
 1842      901.058       598.74
 1843       901.34       599.56
 1844      901.622       600.02
 1845      901.904       600.02
 1846      902.185       599.42
 1847      902.466       598.54
 1848      902.747       597.74
 1849      903.028        597.5
 1850      903.309       597.88
 1851      903.589       598.42
 1852       903.87       598.64
 1853       904.15       598.72
 1854       904.43       598.72
 1855       904.71       598.68
 1856      904.989       599.42
 1857      905.269       600.38
 1858      905.548        600.8
 1859      905.827       601.02
 1860      906.106       601.08
 1861      906.385        600.5
 1862      906.664       599.72
 1863      906.942       599.82
 1864      907.221       599.96
 1865      907.499        600.1
 1866      907.777       600.42
 1867      908.055       601.12
 1868      908.332       601.72
 1869       908.61       601.76
 1870      908.887       601.02
 1871      909.164       599.66
 1872      909.441        598.5
 1873      909.718       597.68
 1874      909.995       597.66
 1875      910.271       597.76
 1876      910.548       597.66
 1877      910.824       597.76
 1878        911.1        597.8
 1879      911.375       597.12
 1880      911.651       596.58
 1881      911.927       596.84
 1882      912.202       596.72
 1883      912.477        596.6
 1884      912.752       597.64
 1885      913.027       598.78
 1886      913.301       599.16
 1887      913.576       598.94
 1888       913.85        598.7
 1889      914.124          598
 1890      914.398       596.94
 1891      914.672       596.34
 1892      914.945       596.88
 1893      915.219        597.5
 1894      915.492       597.66
 1895      915.765        597.8
 1896      916.038          598
 1897      916.311        597.6
 1898      916.583        597.1
 1899      916.856       597.06
 1900      917.128       597.52
 1901        917.4       597.74
 1902      917.672       597.92
 1903      917.944       598.36
 1904      918.215       598.36
 1905      918.486       597.96
 1906      918.758        597.8
 1907      919.029       597.78
 1908      919.299       596.96
 1909       919.57       596.56
 1910      919.841       596.94
 1911      920.111       597.36
 1912      920.381       597.52
 1913      920.651       598.18
 1914      920.921       598.58
 1915      921.191        598.2
 1916       921.46       597.86
 1917      921.729       597.78
 1918      921.999       597.66
 1919      922.268       597.76
 1920      922.536       598.38
 1921      922.805       598.94
 1922      923.073       599.74
 1923      923.342       600.68
 1924       923.61        601.6
 1925      923.878       602.36
 1926      924.145       603.22
 1927      924.413       603.82
 1928       924.68       603.42
 1929      924.948       602.42
 1930      925.215       601.04
 1931      925.482       599.54
 1932      925.748       597.82
 1933      926.015       596.82
 1934      926.281       596.32
 1935      926.547       596.74
 1936      926.813       597.26
 1937      927.079       597.46
 1938      927.345       597.28
 1939       927.61       597.16
 1940      927.876        596.7
 1941      928.141       596.38
 1942      928.406       596.52
 1943      928.671       596.84
 1944      928.935       596.92
 1945        929.2       597.18
 1946      929.464       597.12
 1947      929.728       596.82
 1948      929.992          597
 1949      930.256       597.56
 1950       930.52       597.66
 1951      930.783       598.42
 1952      931.046       599.74
 1953      931.309       600.52
 1954      931.572        600.5
 1955      931.835       600.34
 1956      932.097       599.56
 1957       932.36       598.12
 1958      932.622        596.9
 1959      932.884       596.36
 1960      933.146       596.02
 1961      933.408       596.02
 1962      933.669       596.74
 1963       933.93       597.58
 1964      934.192        598.4
 1965      934.453       599.28
 1966      934.713       599.88
 1967      934.974       599.82
 1968      935.234       599.58
 1969      935.495        599.3
 1970      935.755       599.12
 1971      936.015       598.68
 1972      936.274       598.32
 1973      936.534       598.36
 1974      936.793       598.58
 1975      937.053       598.82
 1976      937.312       599.34
 1977      937.571       600.22
 1978      937.829        601.2
 1979      938.088       601.44
 1980      938.346       601.62
 1981      938.604       601.76
 1982      938.862       601.42
 1983       939.12       600.82
 1984      939.378       601.14
 1985      939.635       601.26
 1986      939.893        600.8
 1987       940.15       600.52
 1988      940.407        600.4
 1989      940.663       600.12
 1990       940.92       599.94
 1991      941.176       599.72
 1992      941.433        599.5
 1993      941.689       599.36
 1994      941.944       599.44
 1995        942.2       599.52
 1996      942.456       599.94
 1997      942.711       600.24
 1998      942.966       599.68
 1999      943.221       598.86
 2000      943.476       598.48
 2001      943.731       598.48
 2002      943.985        598.9
 2003      944.239        599.1
 2004      944.493       598.58
 2005      944.747        597.6
 2006      945.001       596.62
 2007      945.255        595.5
 2008      945.508       594.96
 2009      945.761       594.74
 2010      946.014       594.82
 2011      946.267       595.04
 2012       946.52       595.16
 2013      946.772       595.38
 2014      947.025       596.14
 2015      947.277       596.58
 2016      947.529       596.66
 2017      947.781        597.5
 2018      948.032       599.34
 2019      948.284       600.78
 2020      948.535       601.98
 2021      948.786       602.96
 2022      949.037          603
 2023      949.288        602.1
 2024      949.538        601.1
 2025      949.789       600.18
 2026      950.039       599.74
 2027      950.289       599.62
 2028      950.539       599.36
 2029      950.788       599.22
 2030      951.038       599.14
 2031      951.287       598.88
 2032      951.536       598.58
 2033      951.785       598.24
 2034      952.034       597.94
 2035      952.282       598.16
 2036      952.531       598.52
 2037      952.779       599.18
 2038      953.027       600.04
 2039      953.275       600.48
 2040      953.523       600.64
 2041       953.77       601.08
 2042      954.017       600.52
 2043      954.264       599.56
 2044      954.511        598.4
 2045      954.758       596.46
 2046      955.005       595.05
 2047      955.251      593.867
