scansci Spectrometer Data File
--- Measurement Setting ---
Type: Sample Spectrum
Date: Mon Oct 16 16:32:47 2023
User: (Reserved by scansci)
Serial: (Reserved by scansci)
Channel: No. 11
Integration Time: 1
Average: 10
Boxcar: 2
Electrical Dark: No-corrected
Time Normalize: (Reserved by scansci)
Dual-beam: (Reserved by scansci)
Reference Ch: (Reserved by scansci)
--- Measurement Data ---
Pixel   Wavelength   Intensity
    0        344.4      663.033
    1      344.867      663.475
    2      345.334       663.68
    3      345.801       663.66
    4      346.268        663.5
    5      346.735       663.48
    6      347.202       662.94
    7      347.669       661.98
    8      348.135       661.24
    9      348.602       660.96
   10      349.068        660.9
   11      349.535       660.98
   12      350.001        661.3
   13      350.467       661.76
   14      350.933       662.18
   15      351.399       662.22
   16      351.866       662.24
   17      352.331       662.42
   18      352.797        662.3
   19      353.263       662.26
   20      353.729       662.38
   21      354.194       662.34
   22       354.66       661.98
   23      355.126       661.92
   24      355.591       661.98
   25      356.056       661.76
   26      356.522       661.52
   27      356.987       662.34
   28      357.452       662.96
   29      357.917       662.62
   30      358.382       662.12
   31      358.847       661.94
   32      359.312        661.5
   33      359.776        661.2
   34      360.241       661.36
   35      360.706       661.56
   36       361.17       661.74
   37      361.634       661.74
   38      362.099       661.66
   39      362.563       661.72
   40      363.027       662.22
   41      363.491       662.56
   42      363.955       662.64
   43      364.419       662.76
   44      364.883       662.42
   45      365.347        661.8
   46      365.811       661.42
   47      366.274       661.04
   48      366.738       660.72
   49      367.201       660.98
   50      367.665       661.12
   51      368.128       661.28
   52      368.592       661.74
   53      369.055       662.32
   54      369.518       662.26
   55      369.981       662.06
   56      370.444       661.34
   57      370.907        660.2
   58       371.37       659.18
   59      371.832       658.96
   60      372.295       659.14
   61      372.757        659.7
   62       373.22       660.34
   63      373.682       660.28
   64      374.145       659.92
   65      374.607        659.9
   66      375.069       660.24
   67      375.531       660.64
   68      375.993       661.36
   69      376.455       662.18
   70      376.917       662.62
   71      377.379       662.44
   72      377.841       662.24
   73      378.302       662.56
   74      378.764        662.9
   75      379.225       663.08
   76      379.687       663.14
   77      380.148        663.2
   78      380.609       662.96
   79      381.071        662.8
   80      381.532       662.62
   81      381.993       662.46
   82      382.454       662.38
   83      382.915       662.26
   84      383.375       662.08
   85      383.836       661.84
   86      384.297       661.58
   87      384.757        661.5
   88      385.218        661.6
   89      385.678       661.74
   90      386.138       661.94
   91      386.599       662.82
   92      387.059        663.1
   93      387.519        662.7
   94      387.979       662.02
   95      388.439       661.44
   96      388.899        660.4
   97      389.358       659.74
   98      389.818        659.8
   99      390.278       660.06
  100      390.737        660.5
  101      391.197        661.8
  102      391.656       663.42
  103      392.115       664.54
  104      392.575       665.16
  105      393.034       665.36
  106      393.493       664.64
  107      393.952       663.76
  108      394.411       663.34
  109       394.87       662.92
  110      395.328       662.44
  111      395.787       662.26
  112      396.246       662.24
  113      396.704       662.24
  114      397.163        662.8
  115      397.621        663.6
  116      398.079       664.22
  117      398.537       664.72
  118      398.995        664.6
  119      399.454       663.82
  120      399.911       662.76
  121      400.369       661.66
  122      400.827       660.26
  123      401.285       659.44
  124      401.743       659.76
  125        402.2       660.44
  126      402.658       661.18
  127      403.115       661.78
  128      403.572       661.86
  129       404.03       661.16
  130      404.487       660.56
  131      404.944       660.44
  132      405.401       660.92
  133      405.858       661.86
  134      406.315       662.74
  135      406.771       663.18
  136      407.228       663.32
  137      407.685       663.28
  138      408.141       663.08
  139      408.598       662.94
  140      409.054       663.02
  141       409.51        663.2
  142      409.967       663.58
  143      410.423       663.98
  144      410.879       664.26
  145      411.335       664.26
  146      411.791       664.04
  147      412.246       663.66
  148      412.702       663.38
  149      413.158        663.1
  150      413.613       662.98
  151      414.069        662.6
  152      414.524       662.12
  153       414.98       661.84
  154      415.435       661.48
  155       415.89       661.24
  156      416.345       661.48
  157        416.8        661.6
  158      417.255       661.48
  159       417.71       661.82
  160      418.165       661.78
  161      418.619       661.38
  162      419.074       661.38
  163      419.529       661.36
  164      419.983       660.94
  165      420.437          661
  166      420.892       661.54
  167      421.346          662
  168        421.8        662.7
  169      422.254       663.44
  170      422.708       664.04
  171      423.162       664.22
  172      423.616       663.98
  173       424.07        663.4
  174      424.523       662.66
  175      424.977       661.66
  176       425.43       660.84
  177      425.884       660.18
  178      426.337       659.62
  179       426.79       659.62
  180      427.243       659.92
  181      427.697       660.16
  182       428.15       660.42
  183      428.602       660.56
  184      429.055       660.66
  185      429.508       660.86
  186      429.961       660.82
  187      430.413       661.04
  188      430.866        661.3
  189      431.318       661.38
  190      431.771       661.56
  191      432.223        661.9
  192      432.675       662.28
  193      433.127        662.9
  194      433.579       662.94
  195      434.031        662.7
  196      434.483       662.32
  197      434.935        661.3
  198      435.387       659.98
  199      435.838       659.42
  200       436.29       659.26
  201      436.741       660.08
  202      437.193       661.64
  203      437.644       663.02
  204      438.095       663.68
  205      438.546       663.86
  206      438.997       663.64
  207      439.448       663.24
  208      439.899        662.9
  209       440.35        662.7
  210      440.801       662.52
  211      441.251       662.02
  212      441.702       661.08
  213      442.152       660.22
  214      442.603       659.94
  215      443.053       660.08
  216      443.503        660.1
  217      443.954       659.98
  218      444.404       660.06
  219      444.854       660.04
  220      445.304          660
  221      445.753       659.98
  222      446.203       660.14
  223      446.653       660.46
  224      447.102       660.48
  225      447.552       660.24
  226      448.001       660.08
  227      448.451          660
  228        448.9       660.18
  229      449.349          661
  230      449.798       662.18
  231      450.247       663.52
  232      450.696       664.84
  233      451.145       665.14
  234      451.594       664.66
  235      452.042       663.94
  236      452.491       662.78
  237      452.939       661.28
  238      453.388       660.62
  239      453.836       660.72
  240      454.285       660.94
  241      454.733       661.64
  242      455.181       662.92
  243      455.629       663.38
  244      456.077       663.26
  245      456.525       663.12
  246      456.972       662.74
  247       457.42       662.08
  248      457.868       661.62
  249      458.315       661.44
  250      458.763       661.16
  251       459.21       660.74
  252      459.657       660.68
  253      460.104       660.76
  254      460.552        660.7
  255      460.999       661.04
  256      461.446       661.74
  257      461.892       662.34
  258      462.339       663.28
  259      462.786       664.16
  260      463.233       664.34
  261      463.679        664.3
  262      464.125        664.1
  263      464.572       663.26
  264      465.018        662.2
  265      465.464       661.38
  266       465.91       660.76
  267      466.356       660.26
  268      466.802        660.1
  269      467.248       660.02
  270      467.694       660.18
  271       468.14        660.4
  272      468.585       660.16
  273      469.031       659.82
  274      469.476       659.66
  275      469.922        659.1
  276      470.367       658.42
  277      470.812       658.04
  278      471.257       657.88
  279      471.702       658.52
  280      472.147       659.86
  281      472.592       660.66
  282      473.037        661.2
  283      473.482       661.86
  284      473.926       661.82
  285      474.371        660.9
  286      474.815       660.06
  287      475.259       659.48
  288      475.704       658.86
  289      476.148       657.98
  290      476.592       657.26
  291      477.036        656.9
  292       477.48       656.48
  293      477.924       655.72
  294      478.368        655.4
  295      478.811       655.78
  296      479.255       656.24
  297      479.698       656.88
  298      480.142          658
  299      480.585       659.22
  300      481.028       660.16
  301      481.472       661.08
  302      481.915          662
  303      482.358       662.52
  304      482.801       662.16
  305      483.244        661.8
  306      483.686       661.68
  307      484.129        661.4
  308      484.572       661.42
  309      485.014       662.24
  310      485.456       662.64
  311      485.899       662.44
  312      486.341          662
  313      486.783        661.2
  314      487.225        660.2
  315      487.667       659.72
  316      488.109       659.26
  317      488.551        658.7
  318      488.993       658.66
  319      489.434          659
  320      489.876        659.1
  321      490.318        659.8
  322      490.759       661.08
  323        491.2       661.58
  324      491.641        661.8
  325      492.083       662.12
  326      492.524       661.96
  327      492.965        661.4
  328      493.406        661.1
  329      493.846       660.48
  330      494.287       659.86
  331      494.728        659.8
  332      495.168       660.38
  333      495.609       661.48
  334      496.049       662.52
  335      496.489       662.96
  336       496.93       662.68
  337       497.37       661.64
  338       497.81        660.4
  339       498.25       659.82
  340       498.69          660
  341      499.129       660.24
  342      499.569       660.86
  343      500.009       661.48
  344      500.448       661.74
  345      500.888       661.64
  346      501.327        661.7
  347      501.766        661.5
  348      502.206       661.04
  349      502.645       660.42
  350      503.084       659.72
  351      503.523       659.38
  352      503.961       658.96
  353        504.4       658.52
  354      504.839       658.26
  355      505.277        658.5
  356      505.716       658.72
  357      506.154       659.62
  358      506.593       660.76
  359      507.031       661.32
  360      507.469       661.16
  361      507.907       660.72
  362      508.345        659.8
  363      508.783        658.8
  364      509.221        658.6
  365      509.659       658.64
  366      510.096        658.6
  367      510.534       658.76
  368      510.971       659.14
  369      511.409       659.52
  370      511.846       660.14
  371      512.283       661.14
  372       512.72       662.12
  373      513.157       662.82
  374      513.594       663.14
  375      514.031       663.24
  376      514.468       662.96
  377      514.905       662.12
  378      515.341          661
  379      515.778       660.24
  380      516.214       659.92
  381       516.65       659.46
  382      517.087       659.78
  383      517.523       660.78
  384      517.959       661.22
  385      518.395       661.26
  386      518.831       661.64
  387      519.267       661.64
  388      519.702       661.06
  389      520.138       660.78
  390      520.574       660.58
  391      521.009        660.3
  392      521.444       660.18
  393       521.88       660.38
  394      522.315       660.86
  395       522.75       661.22
  396      523.185        661.6
  397       523.62        661.8
  398      524.055       661.98
  399       524.49       662.38
  400      524.924       662.72
  401      525.359       662.84
  402      525.794        662.9
  403      526.228        662.8
  404      526.662       661.96
  405      527.097        661.2
  406      527.531       660.72
  407      527.965        660.3
  408      528.399        659.9
  409      528.833       660.12
  410      529.267       660.28
  411        529.7        660.1
  412      530.134       659.84
  413      530.568       659.82
  414      531.001        659.4
  415      531.434       659.48
  416      531.868       660.52
  417      532.301       661.72
  418      532.734       662.68
  419      533.167        663.6
  420        533.6       663.88
  421      534.033       663.36
  422      534.466       663.02
  423      534.898        662.7
  424      535.331       662.62
  425      535.763        663.4
  426      536.196       663.88
  427      536.628        663.9
  428       537.06        664.3
  429      537.493        664.4
  430      537.925       663.76
  431      538.357       663.24
  432      538.788       662.82
  433       539.22       662.08
  434      539.652       661.66
  435      540.084       661.62
  436      540.515        662.1
  437      540.947       662.42
  438      541.378       662.56
  439      541.809       663.22
  440       542.24       663.68
  441      542.672        663.4
  442      543.103       662.78
  443      543.533       662.02
  444      543.964        660.4
  445      544.395        658.8
  446      544.826       657.88
  447      545.256       657.98
  448      545.687       658.76
  449      546.117       660.02
  450      546.547       661.32
  451      546.978       662.24
  452      547.408       663.04
  453      547.838       663.76
  454      548.268       664.02
  455      548.698        664.5
  456      549.127       665.42
  457      549.557       665.76
  458      549.987        665.3
  459      550.416       664.86
  460      550.846       664.44
  461      551.275          664
  462      551.704       663.14
  463      552.133       662.04
  464      552.562       660.64
  465      552.991        658.9
  466       553.42       657.16
  467      553.849       656.54
  468      554.278       656.96
  469      554.706       657.74
  470      555.135        658.5
  471      555.563       659.32
  472      555.991        659.8
  473       556.42        660.2
  474      556.848       660.88
  475      557.276        661.5
  476      557.704       661.86
  477      558.132       662.14
  478       558.56       662.18
  479      558.987       661.98
  480      559.415       661.62
  481      559.843        660.9
  482       560.27       660.16
  483      560.697       659.48
  484      561.125       659.26
  485      561.552       659.74
  486      561.979       660.42
  487      562.406       660.98
  488      562.833       661.58
  489       563.26       661.68
  490      563.686       661.38
  491      564.113       661.24
  492       564.54       661.32
  493      564.966        661.4
  494      565.392       661.74
  495      565.819       661.94
  496      566.245       661.74
  497      566.671       661.44
  498      567.097       661.42
  499      567.523       661.06
  500      567.949       661.06
  501      568.374        661.5
  502        568.8       661.64
  503      569.226       661.42
  504      569.651       661.26
  505      570.077       660.86
  506      570.502       660.48
  507      570.927       660.52
  508      571.352       660.62
  509      571.777       660.44
  510      572.202        660.2
  511      572.627       659.94
  512      573.052       659.64
  513      573.476       659.74
  514      573.901       660.12
  515      574.325        660.2
  516       574.75       660.08
  517      575.174       660.26
  518      575.598       660.12
  519      576.022       660.18
  520      576.446       660.46
  521       576.87       660.72
  522      577.294       661.04
  523      577.718       661.56
  524      578.142       661.98
  525      578.565       662.32
  526      578.989       662.68
  527      579.412       662.78
  528      579.835        662.5
  529      580.259       661.84
  530      580.682       661.24
  531      581.105        660.9
  532      581.528       660.42
  533      581.951       659.76
  534      582.373        659.7
  535      582.796        659.9
  536      583.219       659.98
  537      583.641       660.58
  538      584.063       661.26
  539      584.486        661.6
  540      584.908       662.16
  541       585.33       662.76
  542      585.752       662.26
  543      586.174       661.82
  544      586.596        661.2
  545      587.018       660.44
  546      587.439       659.94
  547      587.861       660.04
  548      588.282       659.98
  549      588.704        660.4
  550      589.125       661.22
  551      589.546       661.94
  552      589.967       662.66
  553      590.388       663.16
  554      590.809       663.28
  555       591.23       663.08
  556      591.651       662.54
  557      592.071       661.96
  558      592.492       661.98
  559      592.912       662.44
  560      593.333       662.86
  561      593.753       663.08
  562      594.173       663.12
  563      594.593       663.06
  564      595.013       662.74
  565      595.433       662.16
  566      595.853       662.04
  567      596.273       661.94
  568      596.693       661.98
  569      597.112       662.08
  570      597.532       662.06
  571      597.951       661.78
  572       598.37       661.96
  573      598.789       662.18
  574      599.208        662.3
  575      599.627       662.34
  576      600.046       662.48
  577      600.465       662.62
  578      600.884       662.62
  579      601.303       662.42
  580      601.721          662
  581      602.139       661.14
  582      602.558       660.46
  583      602.976        660.1
  584      603.394        659.8
  585      603.812       659.92
  586       604.23       660.74
  587      604.648       661.42
  588      605.066       662.04
  589      605.484       662.68
  590      605.901       663.06
  591      606.319       663.18
  592      606.736       662.78
  593      607.154       662.08
  594      607.571        661.6
  595      607.988       661.46
  596      608.405        661.6
  597      608.822       661.66
  598      609.239       661.58
  599      609.656       661.62
  600      610.072       661.42
  601      610.489       660.84
  602      610.905       660.96
  603      611.322       661.56
  604      611.738       662.32
  605      612.154       663.02
  606       612.57        663.6
  607      612.986       663.72
  608      613.402       663.18
  609      613.818       662.28
  610      614.234       661.74
  611       614.65       661.46
  612      615.065        661.8
  613      615.481       662.76
  614      615.896       663.58
  615      616.311       663.98
  616      616.727       664.06
  617      617.142       663.82
  618      617.557       663.32
  619      617.972       662.62
  620      618.386       662.24
  621      618.801       662.34
  622      619.216       662.16
  623       619.63       662.16
  624      620.045       662.64
  625      620.459       663.26
  626      620.873       663.94
  627      621.287       664.28
  628      621.702        664.5
  629      622.116       664.74
  630      622.529        664.4
  631      622.943       663.64
  632      623.357       663.36
  633      623.771       663.16
  634      624.184       662.78
  635      624.597       662.68
  636      625.011       662.64
  637      625.424       662.78
  638      625.837       662.42
  639       626.25       662.16
  640      626.663        662.2
  641      627.076       662.02
  642      627.489       661.48
  643      627.901       661.28
  644      628.314       660.68
  645      628.726       659.68
  646      629.139       658.98
  647      629.551       658.66
  648      629.963       659.24
  649      630.375       660.46
  650      630.787       661.82
  651      631.199       663.12
  652      631.611       663.96
  653      632.023       664.02
  654      632.434       664.08
  655      632.846       663.76
  656      633.257       663.26
  657      633.669        662.4
  658       634.08       661.34
  659      634.491        659.8
  660      634.902       658.84
  661      635.313       658.64
  662      635.724       659.18
  663      636.135        659.7
  664      636.545        660.4
  665      636.956       660.98
  666      637.366       661.02
  667      637.777       661.22
  668      638.187       661.64
  669      638.597       662.12
  670      639.007       662.26
  671      639.417       662.34
  672      639.827       662.34
  673      640.237       662.36
  674      640.647       662.34
  675      641.056       662.44
  676      641.466        662.4
  677      641.875       661.96
  678      642.285       661.14
  679      642.694       660.52
  680      643.103       660.44
  681      643.512        660.5
  682      643.921       660.32
  683       644.33       660.48
  684      644.739       660.62
  685      645.148       660.64
  686      645.556       660.74
  687      645.965       661.42
  688      646.373       661.76
  689      646.781        661.9
  690      647.189       661.88
  691      647.598          662
  692      648.006          662
  693      648.414       662.32
  694      648.821       662.58
  695      649.229       662.74
  696      649.637       662.78
  697      650.044        662.2
  698      650.452       661.48
  699      650.859        660.6
  700      651.266       659.78
  701      651.673       659.18
  702       652.08       659.24
  703      652.487       659.16
  704      652.894          659
  705      653.301          659
  706      653.708       659.44
  707      654.114       660.16
  708      654.521        661.2
  709      654.927       662.48
  710      655.333       663.32
  711       655.74       663.34
  712      656.146       662.92
  713      656.552       662.44
  714      656.958        662.1
  715      657.363       662.26
  716      657.769        662.3
  717      658.175        662.5
  718       658.58       662.98
  719      658.986       663.44
  720      659.391       663.76
  721      659.796       664.42
  722      660.201       664.74
  723      660.606       664.32
  724      661.011       664.06
  725      661.416       663.98
  726      661.821       663.82
  727      662.225       663.78
  728       662.63       663.42
  729      663.034       662.72
  730      663.439       662.24
  731      663.843       661.68
  732      664.247       661.12
  733      664.651       661.36
  734      665.055       661.48
  735      665.459       660.42
  736      665.863       659.44
  737      666.267       658.82
  738       666.67       658.02
  739      667.074       657.78
  740      667.477       658.46
  741       667.88       659.48
  742      668.283       660.42
  743      668.687       661.12
  744       669.09       661.36
  745      669.492       661.08
  746      669.895       660.34
  747      670.298       659.72
  748      670.701       659.82
  749      671.103       660.28
  750      671.505       660.92
  751      671.908       661.86
  752       672.31       662.62
  753      672.712       663.14
  754      673.114       663.26
  755      673.516       663.32
  756      673.918        663.6
  757       674.32       663.94
  758      674.721       663.76
  759      675.123       662.92
  760      675.524       662.06
  761      675.926       660.82
  762      676.327       659.32
  763      676.728       658.14
  764      677.129       658.12
  765       677.53       658.42
  766      677.931        658.5
  767      678.332       658.96
  768      678.732        659.5
  769      679.133       659.42
  770      679.533       659.04
  771      679.934       658.76
  772      680.334        658.2
  773      680.734       657.84
  774      681.134       658.16
  775      681.534       658.82
  776      681.934       659.48
  777      682.334       660.34
  778      682.733       660.96
  779      683.133       661.02
  780      683.532       660.76
  781      683.932        660.8
  782      684.331       661.16
  783       684.73       661.44
  784      685.129       661.68
  785      685.528       661.76
  786      685.927       661.36
  787      686.326       660.42
  788      686.725       659.46
  789      687.123        658.6
  790      687.522       658.26
  791       687.92       658.44
  792      688.319        658.6
  793      688.717       658.58
  794      689.115       658.92
  795      689.513        659.6
  796      689.911       660.64
  797      690.309       661.52
  798      690.706       661.98
  799      691.104       662.06
  800      691.501       662.02
  801      691.899       661.86
  802      692.296       661.98
  803      692.693       662.06
  804       693.09       661.74
  805      693.488       660.92
  806      693.884        659.6
  807      694.281        658.5
  808      694.678       658.26
  809      695.075       658.18
  810      695.471        658.1
  811      695.868       658.46
  812      696.264        658.4
  813       696.66       657.94
  814      697.056          658
  815      697.452        658.3
  816      697.848       658.12
  817      698.244       658.12
  818       698.64        658.8
  819      699.035       659.36
  820      699.431       659.94
  821      699.826        661.1
  822      700.222       661.66
  823      700.617       661.18
  824      701.012       660.86
  825      701.407       660.54
  826      701.802       659.96
  827      702.197        659.9
  828      702.592       660.32
  829      702.986       660.66
  830      703.381       660.94
  831      703.775       661.16
  832       704.17       661.42
  833      704.564        661.9
  834      704.958       662.22
  835      705.352       662.08
  836      705.746       661.36
  837       706.14       660.34
  838      706.533       658.88
  839      706.927       657.18
  840      707.321       655.84
  841      707.714       655.24
  842      708.107       655.36
  843      708.501       656.04
  844      708.894        657.1
  845      709.287        658.4
  846       709.68        659.4
  847      710.073       659.48
  848      710.465       659.36
  849      710.858       659.82
  850      711.251       660.26
  851      711.643        660.2
  852      712.035       660.42
  853      712.428       660.56
  854       712.82       660.02
  855      713.212       659.58
  856      713.604       659.34
  857      713.995       659.08
  858      714.387       659.26
  859      714.779       659.88
  860       715.17       660.14
  861      715.562        660.4
  862      715.953       660.78
  863      716.344       660.66
  864      716.735       660.08
  865      717.127        659.6
  866      717.517       659.52
  867      717.908       659.58
  868      718.299       659.92
  869       718.69        660.4
  870       719.08       660.88
  871      719.471       661.14
  872      719.861       661.32
  873      720.251       660.62
  874      720.641       659.72
  875      721.031       659.62
  876      721.421       659.42
  877      721.811        659.3
  878      722.201       659.82
  879       722.59       660.14
  880       722.98       659.16
  881      723.369       658.24
  882      723.759       657.92
  883      724.148        658.1
  884      724.537       658.48
  885      724.926       659.62
  886      725.315       660.72
  887      725.704       660.92
  888      726.092       660.66
  889      726.481       660.08
  890       726.87       658.56
  891      727.258       657.18
  892      727.646        656.7
  893      728.034       656.66
  894      728.423        656.9
  895      728.811       657.74
  896      729.198        658.8
  897      729.586       659.34
  898      729.974       659.58
  899      730.362        660.3
  900      730.749       661.12
  901      731.136       661.36
  902      731.524        661.5
  903      731.911        661.8
  904      732.298       661.36
  905      732.685       660.52
  906      733.072       660.44
  907      733.459       660.36
  908      733.845       660.32
  909      734.232        660.9
  910      734.618        661.8
  911      735.005       662.28
  912      735.391       662.48
  913      735.777       661.72
  914      736.163       660.32
  915      736.549       659.08
  916      736.935       658.04
  917      737.321       657.54
  918      737.706       657.72
  919      738.092       658.48
  920      738.477        659.3
  921      738.863       659.68
  922      739.248       659.82
  923      739.633        660.5
  924      740.018       661.48
  925      740.403       661.96
  926      740.788       662.28
  927      741.173       662.48
  928      741.557       661.72
  929      741.942       660.18
  930      742.326       658.86
  931      742.711       657.94
  932      743.095       657.56
  933      743.479       657.92
  934      743.863       658.66
  935      744.247        659.7
  936      744.631       661.06
  937      745.015        662.1
  938      745.398        662.9
  939      745.782       663.26
  940      746.165       662.74
  941      746.548       662.08
  942      746.932       661.58
  943      747.315       660.96
  944      747.698       660.56
  945      748.081       660.82
  946      748.463       660.96
  947      748.846        660.9
  948      749.229       660.54
  949      749.611       660.38
  950      749.993       660.56
  951      750.376       660.68
  952      750.758       660.58
  953       751.14       660.92
  954      751.522        661.4
  955      751.904       661.42
  956      752.285       661.68
  957      752.667       662.14
  958      753.049       662.18
  959       753.43       661.68
  960      753.811        661.2
  961      754.193       660.48
  962      754.574       659.38
  963      754.955       658.92
  964      755.336       659.08
  965      755.717       659.54
  966      756.097       660.18
  967      756.478       660.94
  968      756.858        661.3
  969      757.239       661.34
  970      757.619        661.4
  971      757.999       661.68
  972      758.379       662.28
  973      758.759       663.24
  974      759.139       664.62
  975      759.519       665.76
  976      759.899       666.36
  977      760.278       666.62
  978      760.658       666.22
  979      761.037       665.22
  980      761.417          664
  981      761.796       662.74
  982      762.175       661.48
  983      762.554       660.84
  984      762.933       660.68
  985      763.311       660.84
  986       763.69       661.08
  987      764.068       661.22
  988      764.447        661.1
  989      764.825        660.7
  990      765.203       660.28
  991      765.582       659.98
  992       765.96       659.94
  993      766.338        659.7
  994      766.715       659.54
  995      767.093        659.5
  996      767.471       659.68
  997      767.848        660.3
  998      768.226       661.12
  999      768.603       661.88
 1000       768.98       662.46
 1001      769.357       662.74
 1002      769.734       662.58
 1003      770.111       662.42
 1004      770.488       662.26
 1005      770.864       661.66
 1006      771.241          661
 1007      771.617       660.76
 1008      771.994       660.66
 1009       772.37       660.56
 1010      772.746       660.84
 1011      773.122        661.6
 1012      773.498        662.2
 1013      773.874       662.44
 1014       774.25       662.56
 1015      774.625        662.6
 1016      775.001        662.2
 1017      775.376       661.38
 1018      775.751        660.6
 1019      776.127       659.98
 1020      776.502       659.86
 1021      776.877       660.16
 1022      777.252       660.52
 1023      777.626       661.18
 1024      778.001       661.88
 1025      778.375       662.16
 1026       778.75       662.14
 1027      779.124       662.32
 1028      779.499       661.78
 1029      779.873          661
 1030      780.247       660.02
 1031      780.621       659.24
 1032      780.994       658.16
 1033      781.368        657.7
 1034      781.742       658.06
 1035      782.115       658.88
 1036      782.489       659.22
 1037      782.862       660.02
 1038      783.235       660.88
 1039      783.608       660.88
 1040      783.981       660.42
 1041      784.354       659.82
 1042      784.727       659.02
 1043        785.1       658.36
 1044      785.472       657.88
 1045      785.845       657.82
 1046      786.217       657.98
 1047      786.589        658.2
 1048      786.961        658.3
 1049      787.333       658.68
 1050      787.705        659.4
 1051      788.077       660.34
 1052      788.449       661.12
 1053       788.82       661.72
 1054      789.192       662.42
 1055      789.563        662.9
 1056      789.934       662.92
 1057      790.306        662.5
 1058      790.677       661.96
 1059      791.048       661.08
 1060      791.419       659.96
 1061      791.789       659.48
 1062       792.16       659.64
 1063       792.53       659.76
 1064      792.901       659.64
 1065      793.271       659.32
 1066      793.641       658.96
 1067      794.012       658.48
 1068      794.382       657.98
 1069      794.751        658.1
 1070      795.121       658.78
 1071      795.491       658.98
 1072      795.861       658.88
 1073       796.23       659.52
 1074      796.599       660.26
 1075      796.969       660.76
 1076      797.338       661.88
 1077      797.707       663.22
 1078      798.076       663.94
 1079      798.445       664.12
 1080      798.813       664.16
 1081      799.182       663.72
 1082       799.55       663.48
 1083      799.919       662.92
 1084      800.287       661.88
 1085      800.655       660.86
 1086      801.023        659.9
 1087      801.391       658.98
 1088      801.759       658.66
 1089      802.127       659.24
 1090      802.495       660.56
 1091      802.862       662.26
 1092       803.23       663.92
 1093      803.597       664.98
 1094      803.964       665.22
 1095      804.331       664.24
 1096      804.698       663.08
 1097      805.065       661.86
 1098      805.432        661.2
 1099      805.799       661.12
 1100      806.165        661.2
 1101      806.532        660.7
 1102      806.898       660.04
 1103      807.264       659.44
 1104      807.631          659
 1105      807.997       658.96
 1106      808.363       659.62
 1107      808.728       660.56
 1108      809.094       661.18
 1109       809.46       661.52
 1110      809.825       661.88
 1111      810.191          662
 1112      810.556       661.86
 1113      810.921        662.3
 1114      811.286        662.4
 1115      811.651       662.28
 1116      812.016       662.24
 1117      812.381       662.36
 1118      812.745       662.24
 1119       813.11       662.34
 1120      813.474       662.74
 1121      813.839       663.04
 1122      814.203        662.7
 1123      814.567       662.28
 1124      814.931        661.8
 1125      815.295       661.22
 1126      815.659       661.02
 1127      816.022       661.46
 1128      816.386       662.18
 1129      816.749       662.86
 1130      817.113       663.06
 1131      817.476       663.38
 1132      817.839       663.82
 1133      818.202       663.12
 1134      818.565       662.62
 1135      818.928       662.94
 1136      819.291       662.82
 1137      819.653       662.32
 1138      820.016       662.78
 1139      820.378       663.52
 1140       820.74       663.66
 1141      821.102       663.58
 1142      821.464       663.82
 1143      821.826        664.1
 1144      822.188       664.08
 1145       822.55       664.14
 1146      822.912       664.42
 1147      823.273       664.36
 1148      823.634       664.34
 1149      823.996       664.66
 1150      824.357       664.96
 1151      824.718        665.2
 1152      825.079       665.34
 1153       825.44       664.96
 1154      825.801       664.28
 1155      826.161       663.42
 1156      826.522       662.54
 1157      826.882        662.1
 1158      827.242       661.86
 1159      827.603       661.74
 1160      827.963       662.04
 1161      828.323        662.4
 1162      828.682        662.8
 1163      829.042       663.08
 1164      829.402       662.62
 1165      829.761       661.54
 1166      830.121       660.68
 1167       830.48          660
 1168      830.839       659.76
 1169      831.198       659.56
 1170      831.557       659.06
 1171      831.916       658.36
 1172      832.275       658.16
 1173      832.634        658.4
 1174      832.992       658.94
 1175      833.351       659.84
 1176      833.709       660.94
 1177      834.067       661.48
 1178      834.425        661.3
 1179      834.783       661.48
 1180      835.141       661.94
 1181      835.499       662.04
 1182      835.857       661.76
 1183      836.214       661.42
 1184      836.572       661.24
 1185      836.929       661.26
 1186      837.286          661
 1187      837.644       660.66
 1188      838.001       660.52
 1189      838.357        660.3
 1190      838.714          660
 1191      839.071       659.96
 1192      839.428       660.16
 1193      839.784       660.14
 1194       840.14        659.6
 1195      840.497       658.52
 1196      840.853       657.82
 1197      841.209       657.44
 1198      841.565       657.16
 1199       841.92       657.28
 1200      842.276       658.82
 1201      842.632       660.76
 1202      842.987       662.58
 1203      843.343       664.56
 1204      843.698        666.6
 1205      844.053       667.52
 1206      844.408       667.34
 1207      844.763       666.54
 1208      845.118       665.52
 1209      845.472       664.32
 1210      845.827       663.14
 1211      846.181        662.3
 1212      846.536       661.98
 1213       846.89        661.9
 1214      847.244       661.56
 1215      847.598       661.62
 1216      847.952        662.1
 1217      848.306       661.88
 1218       848.66        661.6
 1219      849.013       662.28
 1220      849.367       662.82
 1221       849.72       663.32
 1222      850.073       664.38
 1223      850.427       664.94
 1224       850.78       664.44
 1225      851.133       663.54
 1226      851.485       662.48
 1227      851.838       661.88
 1228      852.191          662
 1229      852.543       662.48
 1230      852.896       663.22
 1231      853.248       663.76
 1232        853.6       663.32
 1233      853.952       662.52
 1234      854.304       661.54
 1235      854.656       660.14
 1236      855.007        659.2
 1237      855.359       659.26
 1238       855.71       659.46
 1239      856.062        659.7
 1240      856.413       660.34
 1241      856.764       660.74
 1242      857.115       660.94
 1243      857.466        660.9
 1244      857.817       661.18
 1245      858.168       661.92
 1246      858.518       662.86
 1247      858.869       663.34
 1248      859.219       663.68
 1249      859.569       663.46
 1250       859.92       662.66
 1251       860.27       661.74
 1252      860.619       661.14
 1253      860.969       660.58
 1254      861.319       660.98
 1255      861.669        662.1
 1256      862.018       663.08
 1257      862.367       664.16
 1258      862.717       665.14
 1259      863.066       665.12
 1260      863.415        664.2
 1261      863.764        663.2
 1262      864.112       661.92
 1263      864.461       660.82
 1264       864.81          660
 1265      865.158       659.88
 1266      865.507       660.36
 1267      865.855       661.18
 1268      866.203        661.8
 1269      866.551       662.86
 1270      866.899       663.88
 1271      867.247       664.04
 1272      867.594       663.44
 1273      867.942        663.1
 1274      868.289       662.86
 1275      868.637        662.4
 1276      868.984       662.04
 1277      869.331        661.8
 1278      869.678       661.96
 1279      870.025       661.98
 1280      870.372       662.16
 1281      870.718       662.88
 1282      871.065       663.16
 1283      871.411        663.1
 1284      871.758       662.68
 1285      872.104       661.66
 1286       872.45        660.3
 1287      872.796       660.02
 1288      873.142       660.44
 1289      873.488       661.02
 1290      873.833       661.72
 1291      874.179       662.56
 1292      874.524       663.22
 1293      874.869       663.62
 1294      875.215       663.92
 1295       875.56       663.98
 1296      875.905       663.84
 1297       876.25       663.58
 1298      876.594       662.86
 1299      876.939        662.1
 1300      877.283        661.8
 1301      877.628       661.52
 1302      877.972       660.92
 1303      878.316        660.3
 1304       878.66       660.06
 1305      879.004       660.12
 1306      879.348       660.36
 1307      879.692       660.82
 1308      880.035        661.5
 1309      880.379       662.14
 1310      880.722        662.3
 1311      881.066       661.92
 1312      881.409       661.46
 1313      881.752       660.72
 1314      882.095       659.76
 1315      882.438          659
 1316       882.78       658.84
 1317      883.123       658.96
 1318      883.465       659.22
 1319      883.808       659.54
 1320       884.15       660.24
 1321      884.492       660.96
 1322      884.834       661.54
 1323      885.176       661.86
 1324      885.518       661.78
 1325      885.859       661.46
 1326      886.201       661.02
 1327      886.542       660.26
 1328      886.884       659.52
 1329      887.225       659.14
 1330      887.566       658.66
 1331      887.907       658.04
 1332      888.248        657.5
 1333      888.589        657.6
 1334      888.929       658.18
 1335       889.27       658.82
 1336       889.61       659.44
 1337      889.951        660.1
 1338      890.291       659.82
 1339      890.631       659.08
 1340      890.971       658.76
 1341      891.311       658.78
 1342       891.65       659.54
 1343       891.99       660.92
 1344      892.329       662.32
 1345      892.669       663.48
 1346      893.008       664.46
 1347      893.347       664.62
 1348      893.686       664.46
 1349      894.025       663.92
 1350      894.364       663.04
 1351      894.703       662.16
 1352      895.041       661.56
 1353       895.38       661.32
 1354      895.718        661.1
 1355      896.056       661.02
 1356      896.395       661.38
 1357      896.733       661.84
 1358      897.071       662.14
 1359      897.408       662.62
 1360      897.746        663.3
 1361      898.084       663.68
 1362      898.421       663.78
 1363      898.758        663.5
 1364      899.095       662.98
 1365      899.433       662.24
 1366       899.77        661.5
 1367      900.106       660.82
 1368      900.443       660.64
 1369       900.78        661.1
 1370      901.116        661.5
 1371      901.453       661.78
 1372      901.789        662.3
 1373      902.125       662.86
 1374      902.461       663.26
 1375      902.797        663.5
 1376      903.133       663.28
 1377      903.469       662.84
 1378      903.804       662.36
 1379       904.14        661.9
 1380      904.475       661.66
 1381       904.81       661.76
 1382      905.146       662.32
 1383      905.481       662.96
 1384      905.815        663.4
 1385       906.15       663.96
 1386      906.485       664.42
 1387      906.819       663.88
 1388      907.154       662.34
 1389      907.488       660.78
 1390      907.822        659.3
 1391      908.156       657.64
 1392       908.49       656.44
 1393      908.824       656.66
 1394      909.158       657.56
 1395      909.492       658.14
 1396      909.825       659.28
 1397      910.159        660.8
 1398      910.492       661.76
 1399      910.825       662.48
 1400      911.158       663.12
 1401      911.491        663.4
 1402      911.824       663.68
 1403      912.157       663.94
 1404      912.489        663.8
 1405      912.822        663.9
 1406      913.154       663.46
 1407      913.486       662.52
 1408      913.818       661.64
 1409       914.15       661.26
 1410      914.482       661.28
 1411      914.814       661.92
 1412      915.146       662.72
 1413      915.477       663.12
 1414      915.809       662.72
 1415       916.14       661.56
 1416      916.471       660.14
 1417      916.802       658.86
 1418      917.133       657.88
 1419      917.464       657.22
 1420      917.795       657.38
 1421      918.125       658.42
 1422      918.456       659.66
 1423      918.786        660.9
 1424      919.116       661.88
 1425      919.446       661.94
 1426      919.776       660.96
 1427      920.106       659.78
 1428      920.436       659.12
 1429      920.766       658.82
 1430      921.095        658.5
 1431      921.425       659.08
 1432      921.754       660.22
 1433      922.083          661
 1434      922.412        661.9
 1435      922.741       663.38
 1436       923.07       664.18
 1437      923.399       663.76
 1438      923.727        662.9
 1439      924.056        662.4
 1440      924.384       662.38
 1441      924.713       662.44
 1442      925.041       663.02
 1443      925.369       663.86
 1444      925.697        664.4
 1445      926.024       664.44
 1446      926.352       663.94
 1447       926.68       663.06
 1448      927.007       662.16
 1449      927.334       661.34
 1450      927.662       660.34
 1451      927.989       660.18
 1452      928.316       660.42
 1453      928.643       660.36
 1454      928.969       660.26
 1455      929.296       660.48
 1456      929.622       660.26
 1457      929.949       659.96
 1458      930.275        660.3
 1459      930.601       660.28
 1460      930.927       659.82
 1461      931.253       659.74
 1462      931.579       660.34
 1463      931.905       660.94
 1464       932.23       661.08
 1465      932.556        660.5
 1466      932.881       659.72
 1467      933.206          659
 1468      933.531        658.1
 1469      933.856       657.58
 1470      934.181        658.2
 1471      934.506       658.92
 1472       934.83       659.26
 1473      935.155       660.02
 1474      935.479       661.16
 1475      935.803       661.56
 1476      936.128       661.16
 1477      936.452       660.16
 1478      936.775       658.72
 1479      937.099       657.76
 1480      937.423       657.48
 1481      937.746       657.52
 1482       938.07       658.12
 1483      938.393       659.02
 1484      938.716        659.2
 1485      939.039       659.06
 1486      939.362       659.34
 1487      939.685        659.5
 1488      940.008       659.54
 1489      940.331       659.88
 1490      940.653       660.06
 1491      940.975        660.2
 1492      941.298        660.4
 1493       941.62       660.28
 1494      941.942       659.62
 1495      942.264        659.2
 1496      942.585       658.88
 1497      942.907       658.76
 1498      943.229       658.74
 1499       943.55       658.78
 1500      943.871       659.02
 1501      944.192       659.56
 1502      944.513       660.24
 1503      944.834        661.1
 1504      945.155        662.4
 1505      945.476       663.76
 1506      945.796       664.68
 1507      946.117       664.94
 1508      946.437       664.38
 1509      946.757        663.5
 1510      947.078       662.38
 1511      947.398       661.26
 1512      947.717       660.56
 1513      948.037       660.56
 1514      948.357       660.34
 1515      948.676       660.12
 1516      948.996        660.2
 1517      949.315       660.14
 1518      949.634       660.22
 1519      949.953       660.96
 1520      950.272       661.76
 1521      950.591       662.52
 1522      950.909       663.22
 1523      951.228       663.54
 1524      951.546       663.44
 1525      951.865        663.1
 1526      952.183       662.14
 1527      952.501       661.04
 1528      952.819       660.14
 1529      953.137        659.2
 1530      953.454       658.48
 1531      953.772       657.92
 1532      954.089        657.5
 1533      954.407        657.4
 1534      954.724       657.66
 1535      955.041       658.08
 1536      955.358       658.76
 1537      955.675       659.22
 1538      955.992       659.48
 1539      956.308       659.42
 1540      956.625       659.08
 1541      956.941       658.68
 1542      957.257        658.6
 1543      957.574       658.66
 1544       957.89       658.66
 1545      958.206        658.3
 1546      958.521       657.78
 1547      958.837       657.26
 1548      959.152        656.3
 1549      959.468       655.54
 1550      959.783       655.34
 1551      960.098       655.84
 1552      960.413       656.42
 1553      960.728        657.2
 1554      961.043       657.74
 1555      961.358       658.52
 1556      961.672       659.08
 1557      961.987        659.3
 1558      962.301        659.6
 1559      962.615       660.22
 1560       962.93       660.26
 1561      963.244       659.96
 1562      963.557        659.9
 1563      963.871       659.92
 1564      964.185       659.94
 1565      964.498       660.32
 1566      964.812       660.92
 1567      965.125       661.38
 1568      965.438       661.44
 1569      965.751        661.1
 1570      966.064        660.5
 1571      966.377       660.44
 1572      966.689       660.56
 1573      967.002       660.36
 1574      967.314       660.58
 1575      967.626       661.24
 1576      967.939       661.18
 1577      968.251       661.08
 1578      968.563       661.38
 1579      968.874       661.32
 1580      969.186       660.68
 1581      969.498       660.18
 1582      969.809       659.82
 1583       970.12       659.44
 1584      970.431       658.74
 1585      970.743       658.42
 1586      971.053       658.38
 1587      971.364       658.48
 1588      971.675       658.88
 1589      971.986       659.78
 1590      972.296       660.58
 1591      972.606          661
 1592      972.917          661
 1593      973.227       660.62
 1594      973.537        660.3
 1595      973.847       660.34
 1596      974.156       660.66
 1597      974.466       660.84
 1598      974.775       661.36
 1599      975.085        661.8
 1600      975.394       661.68
 1601      975.703       661.38
 1602      976.012       661.34
 1603      976.321       661.12
 1604       976.63       660.74
 1605      976.938       660.24
 1606      977.247       659.62
 1607      977.555        659.3
 1608      977.863       659.22
 1609      978.172       658.88
 1610       978.48       658.32
 1611      978.787       657.68
 1612      979.095       657.14
 1613      979.403       656.98
 1614       979.71       657.66
 1615      980.018       658.78
 1616      980.325        660.1
 1617      980.632       660.94
 1618      980.939       660.88
 1619      981.246       660.18
 1620      981.553       659.38
 1621       981.86       658.56
 1622      982.166       657.98
 1623      982.473       658.02
 1624      982.779       658.34
 1625      983.085       658.82
 1626      983.391        659.4
 1627      983.697       660.04
 1628      984.003       660.54
 1629      984.309       660.78
 1630      984.614       660.86
 1631       984.92       660.36
 1632      985.225        659.3
 1633       985.53       658.24
 1634      985.835       657.78
 1635       986.14       657.96
 1636      986.445       658.94
 1637       986.75       660.32
 1638      987.054       661.76
 1639      987.359       662.94
 1640      987.663       663.28
 1641      987.967       663.22
 1642      988.271       662.86
 1643      988.575       662.08
 1644      988.879        661.2
 1645      989.183       660.64
 1646      989.487       660.24
 1647       989.79       660.32
 1648      990.093       661.12
 1649      990.397       661.86
 1650        990.7       662.26
 1651      991.003       662.18
 1652      991.306       661.48
 1653      991.608       660.18
 1654      991.911       659.42
 1655      992.213       659.14
 1656      992.516       659.42
 1657      992.818       660.12
 1658       993.12       660.26
 1659      993.422       659.72
 1660      993.724       658.96
 1661      994.026       658.04
 1662      994.327        657.6
 1663      994.629       657.82
 1664       994.93       658.32
 1665      995.232       659.38
 1666      995.533       660.48
 1667      995.834       660.82
 1668      996.135       660.82
 1669      996.435       660.72
 1670      996.736       660.24
 1671      997.036       659.48
 1672      997.337        658.8
 1673      997.637        658.7
 1674      997.937       658.88
 1675      998.237       659.02
 1676      998.537       659.24
 1677      998.837       659.84
 1678      999.137       660.26
 1679      999.436       660.36
 1680      999.735       660.56
 1681      1000.03       660.96
 1682      1000.33       660.92
 1683      1000.63       660.54
 1684      1000.93       660.06
 1685      1001.23       659.52
 1686      1001.53       659.26
 1687      1001.83       658.96
 1688      1002.13        658.5
 1689      1002.42       658.08
 1690      1002.72        658.1
 1691      1003.02       658.16
 1692      1003.32        658.7
 1693      1003.62       660.14
 1694      1003.91       662.04
 1695      1004.21       663.02
 1696      1004.51       663.14
 1697      1004.81       662.82
 1698       1005.1       661.46
 1699       1005.4       659.26
 1700       1005.7       657.78
 1701      1005.99       657.28
 1702      1006.29        657.3
 1703      1006.59          658
 1704      1006.88       659.28
 1705      1007.18        660.2
 1706      1007.48       660.62
 1707      1007.77       660.78
 1708      1008.07       660.52
 1709      1008.36       660.14
 1710      1008.66       659.78
 1711      1008.95       659.28
 1712      1009.25       658.68
 1713      1009.55       658.24
 1714      1009.84       657.78
 1715      1010.14       657.64
 1716      1010.43       657.82
 1717      1010.73       658.18
 1718      1011.02       658.96
 1719      1011.31       660.06
 1720      1011.61       660.92
 1721       1011.9       661.44
 1722       1012.2        661.4
 1723      1012.49       660.54
 1724      1012.79       659.16
 1725      1013.08        658.4
 1726      1013.37       658.12
 1727      1013.67       658.36
 1728      1013.96       658.92
 1729      1014.25       659.82
 1730      1014.55       660.32
 1731      1014.84        660.2
 1732      1015.13       659.68
 1733      1015.42       659.44
 1734      1015.72       658.92
 1735      1016.01        657.7
 1736       1016.3       656.86
 1737      1016.59       657.22
 1738      1016.89       658.02
 1739      1017.18       658.88
 1740      1017.47        660.1
 1741      1017.76       661.36
 1742      1018.05       661.66
 1743      1018.35       661.58
 1744      1018.64       661.72
 1745      1018.93       661.78
 1746      1019.22       661.22
 1747      1019.51       660.86
 1748       1019.8       660.54
 1749      1020.09       660.26
 1750      1020.38       660.32
 1751      1020.67       660.66
 1752      1020.96       660.86
 1753      1021.25       660.86
 1754      1021.54       661.26
 1755      1021.83       661.62
 1756      1022.12       661.78
 1757      1022.41        661.8
 1758       1022.7       661.66
 1759      1022.99       660.64
 1760      1023.28       659.58
 1761      1023.57        659.1
 1762      1023.86       658.92
 1763      1024.15       659.22
 1764      1024.44       659.84
 1765      1024.73        660.3
 1766      1025.02       660.52
 1767       1025.3       660.64
 1768      1025.59        660.4
 1769      1025.88       659.98
 1770      1026.17       659.78
 1771      1026.46       659.76
 1772      1026.74       659.66
 1773      1027.03       659.02
 1774      1027.32        658.7
 1775      1027.61       658.68
 1776      1027.89       658.92
 1777      1028.18        659.4
 1778      1028.47       660.38
 1779      1028.76       661.48
 1780      1029.04        662.1
 1781      1029.33       661.86
 1782      1029.62        661.6
 1783       1029.9       661.88
 1784      1030.19       661.96
 1785      1030.47       662.08
 1786      1030.76       662.54
 1787      1031.05       662.18
 1788      1031.33       661.32
 1789      1031.62       661.02
 1790       1031.9       660.84
 1791      1032.19       660.42
 1792      1032.47       660.22
 1793      1032.76       660.28
 1794      1033.04       660.28
 1795      1033.33       660.54
 1796      1033.61       661.14
 1797       1033.9       661.86
 1798      1034.18       662.44
 1799      1034.47       662.68
 1800      1034.75       662.06
 1801      1035.04       661.12
 1802      1035.32       660.58
 1803       1035.6       660.36
 1804      1035.89       660.04
 1805      1036.17        660.4
 1806      1036.45       661.42
 1807      1036.74       662.28
 1808      1037.02       662.78
 1809       1037.3       663.16
 1810      1037.59       662.74
 1811      1037.87       661.84
 1812      1038.15       661.16
 1813      1038.44       660.54
 1814      1038.72       659.72
 1815         1039       659.62
 1816      1039.28       659.74
 1817      1039.56        659.5
 1818      1039.85        659.2
 1819      1040.13       659.32
 1820      1040.41       659.38
 1821      1040.69       659.44
 1822      1040.97       660.14
 1823      1041.25       660.52
 1824      1041.54        659.8
 1825      1041.82       659.14
 1826       1042.1        658.9
 1827      1042.38       658.08
 1828      1042.66       657.66
 1829      1042.94       658.38
 1830      1043.22       659.46
 1831       1043.5       660.12
 1832      1043.78       660.72
 1833      1044.06       661.12
 1834      1044.34       661.42
 1835      1044.62        661.3
 1836       1044.9       660.64
 1837      1045.18       660.02
 1838      1045.46       659.68
 1839      1045.74       659.26
 1840      1046.02        658.5
 1841       1046.3       658.04
 1842      1046.58       657.98
 1843      1046.85        657.9
 1844      1047.13       657.96
 1845      1047.41        658.7
 1846      1047.69       659.64
 1847      1047.97        660.3
 1848      1048.25       660.66
 1849      1048.52       660.76
 1850       1048.8        660.3
 1851      1049.08       659.56
 1852      1049.36       658.68
 1853      1049.63        657.5
 1854      1049.91        656.3
 1855      1050.19       656.02
 1856      1050.47       656.32
 1857      1050.74       656.96
 1858      1051.02        658.3
 1859       1051.3       659.98
 1860      1051.57        660.9
 1861      1051.85       661.42
 1862      1052.13       661.54
 1863       1052.4       661.16
 1864      1052.68       660.48
 1865      1052.95       659.76
 1866      1053.23        659.7
 1867      1053.51       660.44
 1868      1053.78       661.38
 1869      1054.06       662.38
 1870      1054.33       663.52
 1871      1054.61        663.9
 1872      1054.88       663.46
 1873      1055.16       662.78
 1874      1055.43       661.72
 1875      1055.71       660.28
 1876      1055.98       659.24
 1877      1056.25       658.66
 1878      1056.53        658.4
 1879       1056.8       658.62
 1880      1057.08       659.12
 1881      1057.35        659.2
 1882      1057.62       658.86
 1883       1057.9       658.68
 1884      1058.17        658.3
 1885      1058.45       657.88
 1886      1058.72       658.14
 1887      1058.99       658.72
 1888      1059.26       659.02
 1889      1059.54       659.52
 1890      1059.81       660.12
 1891      1060.08       659.88
 1892      1060.35       659.12
 1893      1060.63       658.68
 1894       1060.9        658.6
 1895      1061.17       658.64
 1896      1061.44       658.84
 1897      1061.71       659.56
 1898      1061.99        660.5
 1899      1062.26       661.18
 1900      1062.53       661.44
 1901       1062.8        661.6
 1902      1063.07        661.6
 1903      1063.34        661.2
 1904      1063.61       660.36
 1905      1063.88        659.5
 1906      1064.15        659.2
 1907      1064.42       659.22
 1908       1064.7       659.38
 1909      1064.97       659.94
 1910      1065.24       660.12
 1911      1065.51       659.84
 1912      1065.78       659.72
 1913      1066.04       659.44
 1914      1066.31       658.92
 1915      1066.58       658.94
 1916      1066.85        659.3
 1917      1067.12       659.34
 1918      1067.39       659.16
 1919      1067.66       659.28
 1920      1067.93       659.68
 1921       1068.2       660.34
 1922      1068.47        660.8
 1923      1068.73       661.14
 1924         1069       661.28
 1925      1069.27        661.2
 1926      1069.54       660.52
 1927      1069.81       659.54
 1928      1070.07        658.7
 1929      1070.34          658
 1930      1070.61       657.68
 1931      1070.88        657.8
 1932      1071.14        658.4
 1933      1071.41        659.4
 1934      1071.68       660.34
 1935      1071.94       661.06
 1936      1072.21       661.32
 1937      1072.48       661.34
 1938      1072.74       661.16
 1939      1073.01       660.62
 1940      1073.28       660.02
 1941      1073.54       659.72
 1942      1073.81       659.54
 1943      1074.07       659.38
 1944      1074.34       659.34
 1945       1074.6        659.1
 1946      1074.87       658.56
 1947      1075.13       658.58
 1948       1075.4       659.04
 1949      1075.66        659.5
 1950      1075.93       659.78
 1951      1076.19        660.3
 1952      1076.46       660.38
 1953      1076.72       659.64
 1954      1076.99       658.68
 1955      1077.25       658.18
 1956      1077.52       658.16
 1957      1077.78       658.26
 1958      1078.04        658.6
 1959      1078.31       659.24
 1960      1078.57          660
 1961      1078.83       660.46
 1962       1079.1       660.72
 1963      1079.36       661.28
 1964      1079.62       661.86
 1965      1079.89       661.64
 1966      1080.15       660.96
 1967      1080.41       660.26
 1968      1080.67       659.14
 1969      1080.94        657.5
 1970       1081.2       656.58
 1971      1081.46       656.62
 1972      1081.72       656.92
 1973      1081.98        657.7
 1974      1082.24       659.48
 1975      1082.51        661.2
 1976      1082.77       662.24
 1977      1083.03       662.68
 1978      1083.29       662.54
 1979      1083.55       661.32
 1980      1083.81       659.68
 1981      1084.07       658.18
 1982      1084.33       656.94
 1983      1084.59       656.48
 1984      1084.85       657.04
 1985      1085.11       657.94
 1986      1085.37       658.96
 1987      1085.63       659.96
 1988      1085.89       660.36
 1989      1086.15       660.14
 1990      1086.41       659.84
 1991      1086.67       659.54
 1992      1086.93       659.48
 1993      1087.19       659.58
 1994      1087.45       660.06
 1995      1087.71        660.6
 1996      1087.97       660.68
 1997      1088.23       660.34
 1998      1088.48          660
 1999      1088.74       659.74
 2000         1089        659.5
 2001      1089.26       659.34
 2002      1089.52       659.64
 2003      1089.77       659.76
 2004      1090.03       659.56
 2005      1090.29       659.14
 2006      1090.55       658.76
 2007       1090.8        658.4
 2008      1091.06       658.38
 2009      1091.32       658.88
 2010      1091.57       659.54
 2011      1091.83       660.16
 2012      1092.09        660.3
 2013      1092.34        660.4
 2014       1092.6       660.02
 2015      1092.86       659.78
 2016      1093.11        659.9
 2017      1093.37       660.24
 2018      1093.62        660.4
 2019      1093.88       660.42
 2020      1094.13       660.26
 2021      1094.39       659.62
 2022      1094.65        658.7
 2023       1094.9       657.94
 2024      1095.16       657.78
 2025      1095.41       658.04
 2026      1095.66        658.6
 2027      1095.92        659.8
 2028      1096.17       660.98
 2029      1096.43       660.92
 2030      1096.68          660
 2031      1096.94       659.22
 2032      1097.19       658.84
 2033      1097.44       658.38
 2034       1097.7       658.92
 2035      1097.95       659.88
 2036       1098.2        660.5
 2037      1098.46        660.6
 2038      1098.71       660.56
 2039      1098.96       660.36
 2040      1099.22       660.26
 2041      1099.47        660.1
 2042      1099.72       659.48
 2043      1099.97        658.6
 2044      1100.23       657.88
 2045      1100.48       658.18
 2046      1100.73       657.95
 2047      1100.98      658.033
