scansci Spectrometer Data File
--- Measurement Setting ---
Type: Sample Spectrum
Date: Mon Oct 16 16:52:51 2023
User: (Reserved by scansci)
Serial: (Reserved by scansci)
Channel: No. 11
Integration Time: 1
Average: 10
Boxcar: 2
Electrical Dark: No-corrected
Time Normalize: (Reserved by scansci)
Dual-beam: (Reserved by scansci)
Reference Ch: (Reserved by scansci)
--- Measurement Data ---
Pixel   Wavelength   Intensity
    0        344.4      676.133
    1      344.867      676.075
    2      345.334       675.94
    3      345.801        676.1
    4      346.268       675.58
    5      346.735       675.12
    6      347.202       675.42
    7      347.669       675.66
    8      348.135       675.42
    9      348.602       675.38
   10      349.068        675.4
   11      349.535        675.1
   12      350.001        674.6
   13      350.467       674.22
   14      350.933       673.18
   15      351.399       671.78
   16      351.866       670.44
   17      352.331       669.64
   18      352.797       669.32
   19      353.263       670.26
   20      353.729       671.26
   21      354.194       671.74
   22       354.66       671.78
   23      355.126       671.64
   24      355.591       670.82
   25      356.056       670.34
   26      356.522       670.34
   27      356.987       670.58
   28      357.452       670.82
   29      357.917       671.04
   30      358.382       671.06
   31      358.847       671.26
   32      359.312       671.54
   33      359.776       671.94
   34      360.241       672.36
   35      360.706       672.94
   36       361.17       673.16
   37      361.634        673.2
   38      362.099        673.2
   39      362.563       673.16
   40      363.027       672.84
   41      363.491       672.64
   42      363.955       672.42
   43      364.419       672.08
   44      364.883       672.16
   45      365.347       672.16
   46      365.811       672.22
   47      366.274       672.38
   48      366.738        672.6
   49      367.201       672.88
   50      367.665        673.1
   51      368.128       672.74
   52      368.592       672.44
   53      369.055       672.48
   54      369.518       672.28
   55      369.981       672.14
   56      370.444       672.38
   57      370.907       672.78
   58       371.37       673.14
   59      371.832        673.7
   60      372.295        674.2
   61      372.757        674.6
   62       373.22       674.84
   63      373.682          675
   64      374.145          675
   65      374.607       674.88
   66      375.069       674.32
   67      375.531       673.64
   68      375.993       672.78
   69      376.455       671.72
   70      376.917       670.78
   71      377.379       670.32
   72      377.841       669.72
   73      378.302       669.16
   74      378.764       669.26
   75      379.225       669.82
   76      379.687        670.6
   77      380.148        671.7
   78      380.609       672.58
   79      381.071       672.74
   80      381.532       672.78
   81      381.993       672.68
   82      382.454       672.38
   83      382.915       672.24
   84      383.375       672.24
   85      383.836       672.04
   86      384.297       671.98
   87      384.757        672.1
   88      385.218       672.16
   89      385.678       672.36
   90      386.138       672.48
   91      386.599       672.14
   92      387.059       671.46
   93      387.519       670.92
   94      387.979        670.6
   95      388.439       670.36
   96      388.899       670.84
   97      389.358       672.06
   98      389.818        673.4
   99      390.278       673.92
  100      390.737       674.24
  101      391.197       674.68
  102      391.656       674.86
  103      392.115       674.52
  104      392.575       674.54
  105      393.034       674.68
  106      393.493       674.02
  107      393.952       673.22
  108      394.411       672.62
  109       394.87       671.86
  110      395.328       671.42
  111      395.787       671.58
  112      396.246        672.1
  113      396.704       672.84
  114      397.163        673.5
  115      397.621       673.98
  116      398.079       674.06
  117      398.537       673.36
  118      398.995       672.74
  119      399.454        672.9
  120      399.911       673.12
  121      400.369       673.64
  122      400.827       674.04
  123      401.285       673.74
  124      401.743        673.3
  125        402.2       672.92
  126      402.658       672.42
  127      403.115       672.32
  128      403.572        672.7
  129       404.03          673
  130      404.487       672.96
  131      404.944       672.74
  132      405.401       672.66
  133      405.858       672.68
  134      406.315       672.64
  135      406.771        672.7
  136      407.228       672.66
  137      407.685       672.46
  138      408.141       672.44
  139      408.598        672.2
  140      409.054       671.98
  141       409.51       672.54
  142      409.967       673.32
  143      410.423       673.92
  144      410.879       673.84
  145      411.335        673.4
  146      411.791       672.48
  147      412.246       671.76
  148      412.702       670.98
  149      413.158       671.24
  150      413.613       671.74
  151      414.069       671.74
  152      414.524        671.8
  153       414.98       672.32
  154      415.435       672.56
  155       415.89       672.72
  156      416.345        673.1
  157        416.8          673
  158      417.255       672.44
  159       417.71       671.64
  160      418.165       671.06
  161      418.619       671.14
  162      419.074       671.28
  163      419.529       671.38
  164      419.983       671.72
  165      420.437       671.86
  166      420.892       671.56
  167      421.346       671.36
  168        421.8       671.34
  169      422.254       671.48
  170      422.708       671.78
  171      423.162       672.08
  172      423.616       672.36
  173       424.07       672.26
  174      424.523       672.14
  175      424.977        671.9
  176       425.43       671.36
  177      425.884       671.38
  178      426.337       672.16
  179       426.79       673.16
  180      427.243       674.44
  181      427.697        675.9
  182       428.15       676.16
  183      428.602       675.64
  184      429.055        674.9
  185      429.508       674.28
  186      429.961       673.58
  187      430.413       673.28
  188      430.866       673.22
  189      431.318       673.28
  190      431.771       672.78
  191      432.223       671.78
  192      432.675       671.04
  193      433.127        670.8
  194      433.579        670.5
  195      434.031       670.74
  196      434.483       671.78
  197      434.935       672.92
  198      435.387        673.2
  199      435.838       672.92
  200       436.29       672.34
  201      436.741        671.4
  202      437.193       670.18
  203      437.644        669.8
  204      438.095        670.6
  205      438.546       671.48
  206      438.997       672.32
  207      439.448       673.22
  208      439.899       673.42
  209       440.35       672.64
  210      440.801       672.02
  211      441.251       671.84
  212      441.702       671.72
  213      442.152       671.98
  214      442.603       672.06
  215      443.053       671.98
  216      443.503       672.26
  217      443.954       672.64
  218      444.404       672.82
  219      444.854       673.24
  220      445.304       674.12
  221      445.753        674.2
  222      446.203       673.82
  223      446.653       673.84
  224      447.102        674.2
  225      447.552        673.8
  226      448.001       673.56
  227      448.451        673.6
  228        448.9        673.4
  229      449.349       673.36
  230      449.798       674.02
  231      450.247       674.32
  232      450.696        674.3
  233      451.145       674.18
  234      451.594       673.28
  235      452.042       672.04
  236      452.491       671.52
  237      452.939       671.28
  238      453.388       671.06
  239      453.836       671.38
  240      454.285        671.5
  241      454.733       671.18
  242      455.181       671.24
  243      455.629        671.7
  244      456.077        671.8
  245      456.525       671.96
  246      456.972       672.56
  247       457.42       672.84
  248      457.868       672.68
  249      458.315       672.36
  250      458.763       672.06
  251       459.21       671.88
  252      459.657       671.74
  253      460.104        671.4
  254      460.552       671.38
  255      460.999       671.66
  256      461.446       671.66
  257      461.892        671.6
  258      462.339        671.3
  259      462.786       671.02
  260      463.233       670.48
  261      463.679       669.86
  262      464.125       669.26
  263      464.572       668.84
  264      465.018       668.66
  265      465.464       669.12
  266       465.91       669.48
  267      466.356       669.64
  268      466.802       670.02
  269      467.248       670.26
  270      467.694        670.1
  271       468.14       669.92
  272      468.585        670.2
  273      469.031       670.94
  274      469.476       671.74
  275      469.922       672.46
  276      470.367       673.24
  277      470.812       673.78
  278      471.257       673.78
  279      471.702       673.54
  280      472.147       673.02
  281      472.592       672.64
  282      473.037       672.42
  283      473.482       672.28
  284      473.926       672.12
  285      474.371       672.28
  286      474.815       672.28
  287      475.259       671.88
  288      475.704       671.54
  289      476.148       671.52
  290      476.592       671.56
  291      477.036       671.74
  292       477.48        671.6
  293      477.924       671.54
  294      478.368        671.8
  295      478.811       671.42
  296      479.255        670.4
  297      479.698        669.9
  298      480.142       669.22
  299      480.585       668.44
  300      481.028       668.62
  301      481.472       669.76
  302      481.915        670.5
  303      482.358          671
  304      482.801       671.54
  305      483.244       671.86
  306      483.686       671.16
  307      484.129       670.22
  308      484.572       669.52
  309      485.014       668.42
  310      485.456        667.2
  311      485.899        666.8
  312      486.341       666.94
  313      486.783       667.42
  314      487.225        667.9
  315      487.667       667.86
  316      488.109       667.72
  317      488.551       668.36
  318      488.993       669.04
  319      489.434       669.64
  320      489.876       670.68
  321      490.318       671.82
  322      490.759       672.56
  323        491.2       673.16
  324      491.641       673.64
  325      492.083       673.84
  326      492.524       673.76
  327      492.965       673.52
  328      493.406       673.16
  329      493.846        672.8
  330      494.287       672.56
  331      494.728       672.62
  332      495.168       672.32
  333      495.609        671.7
  334      496.049       671.82
  335      496.489        672.5
  336       496.93       672.68
  337       497.37        673.1
  338       497.81       673.76
  339       498.25       673.94
  340       498.69        673.5
  341      499.129       673.16
  342      499.569       672.68
  343      500.009       672.36
  344      500.448       672.08
  345      500.888       671.56
  346      501.327       670.98
  347      501.766       670.92
  348      502.206        671.3
  349      502.645       671.46
  350      503.084        671.6
  351      503.523       671.72
  352      503.961       671.48
  353        504.4       671.02
  354      504.839       670.66
  355      505.277       670.48
  356      505.716        670.8
  357      506.154       671.42
  358      506.593       671.56
  359      507.031       671.74
  360      507.469       672.22
  361      507.907       672.68
  362      508.345       673.16
  363      508.783       673.28
  364      509.221       672.82
  365      509.659       672.66
  366      510.096       672.78
  367      510.534       672.62
  368      510.971       673.12
  369      511.409       674.24
  370      511.846       674.58
  371      512.283       674.62
  372       512.72       674.86
  373      513.157       675.12
  374      513.594       675.14
  375      514.031       675.68
  376      514.468        675.9
  377      514.905       675.56
  378      515.341       674.64
  379      515.778       673.46
  380      516.214       671.84
  381       516.65        670.4
  382      517.087       669.66
  383      517.523       669.52
  384      517.959       669.96
  385      518.395       671.02
  386      518.831       671.74
  387      519.267       672.08
  388      519.702       672.52
  389      520.138       672.56
  390      520.574        672.3
  391      521.009       672.34
  392      521.444        672.4
  393       521.88       671.86
  394      522.315        671.3
  395       522.75       670.72
  396      523.185        670.6
  397       523.62       670.86
  398      524.055       671.38
  399       524.49       672.26
  400      524.924       672.92
  401      525.359       672.98
  402      525.794       672.82
  403      526.228       672.94
  404      526.662       672.84
  405      527.097       672.78
  406      527.531        672.7
  407      527.965       672.52
  408      528.399       672.64
  409      528.833       673.66
  410      529.267       674.88
  411        529.7       675.88
  412      530.134       676.82
  413      530.568       677.04
  414      531.001       676.14
  415      531.434       674.96
  416      531.868       673.98
  417      532.301       673.46
  418      532.734       673.46
  419      533.167       673.52
  420        533.6       673.88
  421      534.033       674.76
  422      534.466       675.22
  423      534.898       675.32
  424      535.331        675.7
  425      535.763       676.32
  426      536.196       676.12
  427      536.628       675.56
  428       537.06       674.98
  429      537.493       674.22
  430      537.925       673.38
  431      538.357       673.24
  432      538.788       673.72
  433       539.22       674.56
  434      539.652       675.74
  435      540.084       676.12
  436      540.515       675.96
  437      540.947        675.7
  438      541.378       675.66
  439      541.809       675.28
  440       542.24       675.06
  441      542.672       675.02
  442      543.103       674.96
  443      543.533       674.46
  444      543.964       674.18
  445      544.395       674.52
  446      544.826       674.98
  447      545.256          675
  448      545.687        674.4
  449      546.117       673.82
  450      546.547       673.28
  451      546.978       672.54
  452      547.408        672.3
  453      547.838       673.02
  454      548.268       673.58
  455      548.698       673.86
  456      549.127       674.68
  457      549.557       675.36
  458      549.987        675.2
  459      550.416       675.24
  460      550.846        675.2
  461      551.275       674.84
  462      551.704       674.76
  463      552.133       675.22
  464      552.562       675.46
  465      552.991        675.7
  466       553.42        675.7
  467      553.849       675.04
  468      554.278       674.18
  469      554.706       673.56
  470      555.135       673.14
  471      555.563       673.04
  472      555.991        673.3
  473       556.42       673.66
  474      556.848       673.98
  475      557.276       674.16
  476      557.704       673.92
  477      558.132        673.4
  478       558.56       673.22
  479      558.987       672.98
  480      559.415        672.8
  481      559.843       673.18
  482       560.27       673.98
  483      560.697       674.62
  484      561.125       675.22
  485      561.552       675.56
  486      561.979        675.6
  487      562.406       675.64
  488      562.833        675.4
  489       563.26       674.92
  490      563.686       674.88
  491      564.113        674.8
  492       564.54       674.08
  493      564.966       673.44
  494      565.392       673.52
  495      565.819          674
  496      566.245       674.72
  497      566.671        675.4
  498      567.097       676.16
  499      567.523       676.52
  500      567.949       676.06
  501      568.374       675.48
  502        568.8       675.62
  503      569.226       675.18
  504      569.651        674.5
  505      570.077       674.24
  506      570.502       673.86
  507      570.927        673.1
  508      571.352       672.88
  509      571.777       672.88
  510      572.202       672.78
  511      572.627       672.94
  512      573.052       673.52
  513      573.476       674.22
  514      573.901       674.96
  515      574.325        675.2
  516       574.75        675.1
  517      575.174       675.04
  518      575.598       675.04
  519      576.022       674.96
  520      576.446       675.28
  521       576.87        675.7
  522      577.294       675.64
  523      577.718        675.3
  524      578.142       674.98
  525      578.565       674.54
  526      578.989       674.02
  527      579.412       673.64
  528      579.835       673.44
  529      580.259       673.26
  530      580.682       672.92
  531      581.105       672.76
  532      581.528       673.42
  533      581.951       674.42
  534      582.373       675.26
  535      582.796       676.42
  536      583.219        677.3
  537      583.641       677.34
  538      584.063       677.06
  539      584.486       677.06
  540      584.908       676.98
  541       585.33       676.98
  542      585.752          677
  543      586.174       677.16
  544      586.596       677.26
  545      587.018       676.92
  546      587.439        676.7
  547      587.861       676.74
  548      588.282       676.38
  549      588.704       675.94
  550      589.125       676.04
  551      589.546       676.14
  552      589.967       676.02
  553      590.388       675.66
  554      590.809       674.96
  555       591.23       674.76
  556      591.651       674.86
  557      592.071       674.82
  558      592.492       675.32
  559      592.912       677.06
  560      593.333       678.36
  561      593.753       678.98
  562      594.173       679.84
  563      594.593       680.48
  564      595.013        679.8
  565      595.433       678.98
  566      595.853       678.38
  567      596.273        677.4
  568      596.693       676.66
  569      597.112       676.64
  570      597.532       676.78
  571      597.951       677.48
  572       598.37       678.82
  573      598.789       679.94
  574      599.208       680.64
  575      599.627       681.16
  576      600.046       681.06
  577      600.465        680.3
  578      600.884       679.52
  579      601.303       678.96
  580      601.721        678.1
  581      602.139       677.32
  582      602.558       676.94
  583      602.976       676.84
  584      603.394        676.8
  585      603.812       677.36
  586       604.23       678.18
  587      604.648       678.98
  588      605.066       679.16
  589      605.484       678.86
  590      605.901       678.54
  591      606.319       678.28
  592      606.736       677.58
  593      607.154          677
  594      607.571       676.82
  595      607.988       676.72
  596      608.405       676.58
  597      608.822       676.94
  598      609.239       677.76
  599      609.656       678.76
  600      610.072       679.08
  601      610.489       678.22
  602      610.905       677.12
  603      611.322       676.06
  604      611.738       675.14
  605      612.154       674.96
  606       612.57       675.56
  607      612.986       676.14
  608      613.402       676.48
  609      613.818       676.02
  610      614.234       675.26
  611       614.65       675.12
  612      615.065       675.24
  613      615.481       675.26
  614      615.896       675.54
  615      616.311        675.7
  616      616.727       675.66
  617      617.142       676.02
  618      617.557       676.72
  619      617.972       677.18
  620      618.386        677.6
  621      618.801       677.62
  622      619.216          677
  623       619.63       676.54
  624      620.045        676.4
  625      620.459       675.84
  626      620.873        675.7
  627      621.287       675.92
  628      621.702       675.68
  629      622.116       675.34
  630      622.529       675.52
  631      622.943       675.96
  632      623.357       676.38
  633      623.771       676.52
  634      624.184       676.78
  635      624.597        677.4
  636      625.011       677.82
  637      625.424       678.28
  638      625.837       678.96
  639       626.25       679.32
  640      626.663        679.5
  641      627.076       679.54
  642      627.489       679.34
  643      627.901       679.16
  644      628.314       679.14
  645      628.726       678.94
  646      629.139       678.66
  647      629.551       678.34
  648      629.963        678.6
  649      630.375        679.1
  650      630.787        679.5
  651      631.199        679.8
  652      631.611       679.76
  653      632.023        678.8
  654      632.434        677.9
  655      632.846       677.26
  656      633.257       676.86
  657      633.669        676.9
  658       634.08       677.54
  659      634.491       678.06
  660      634.902        678.2
  661      635.313       678.36
  662      635.724       678.34
  663      636.135       678.02
  664      636.545       677.64
  665      636.956        676.8
  666      637.366       675.76
  667      637.777       674.98
  668      638.187       674.34
  669      638.597        673.8
  670      639.007       674.34
  671      639.417        675.5
  672      639.827       676.56
  673      640.237       677.58
  674      640.647       678.48
  675      641.056       678.84
  676      641.466       678.66
  677      641.875        678.3
  678      642.285       677.44
  679      642.694       677.14
  680      643.103        677.1
  681      643.512       676.54
  682      643.921       676.04
  683       644.33       676.62
  684      644.739       676.98
  685      645.148       676.88
  686      645.556       677.26
  687      645.965       678.06
  688      646.373       678.02
  689      646.781          678
  690      647.189       678.34
  691      647.598       678.54
  692      648.006       677.92
  693      648.414       677.76
  694      648.821       677.64
  695      649.229        677.5
  696      649.637       677.38
  697      650.044       677.62
  698      650.452       677.84
  699      650.859        678.1
  700      651.266       678.22
  701      651.673       678.64
  702       652.08       678.76
  703      652.487        678.4
  704      652.894       677.48
  705      653.301        676.6
  706      653.708       675.98
  707      654.114        675.9
  708      654.521       675.78
  709      654.927       675.74
  710      655.333        675.6
  711       655.74       675.12
  712      656.146       674.98
  713      656.552        675.5
  714      656.958       675.96
  715      657.363       676.32
  716      657.769       676.22
  717      658.175       675.78
  718       658.58       675.04
  719      658.986        674.6
  720      659.391       674.82
  721      659.796       675.72
  722      660.201       676.34
  723      660.606       676.48
  724      661.011       676.02
  725      661.416       675.28
  726      661.821       674.74
  727      662.225       674.34
  728       662.63        674.4
  729      663.034       675.28
  730      663.439       676.18
  731      663.843       676.36
  732      664.247       676.76
  733      664.651       677.46
  734      665.055       677.58
  735      665.459       677.56
  736      665.863        677.6
  737      666.267       677.46
  738       666.67       676.88
  739      667.074       676.22
  740      667.477       675.38
  741       667.88       674.44
  742      668.283       673.72
  743      668.687        673.6
  744       669.09       673.48
  745      669.492       673.56
  746      669.895       674.36
  747      670.298       674.74
  748      670.701       675.16
  749      671.103       676.38
  750      671.505        677.3
  751      671.908       677.44
  752       672.31       677.68
  753      672.712       677.46
  754      673.114        676.8
  755      673.516       676.34
  756      673.918       675.82
  757       674.32       675.46
  758      674.721       675.42
  759      675.123       675.28
  760      675.524       675.32
  761      675.926       676.04
  762      676.327       676.48
  763      676.728       676.32
  764      677.129       676.12
  765       677.53       675.68
  766      677.931       674.78
  767      678.332        673.9
  768      678.732        673.5
  769      679.133       673.14
  770      679.533       672.84
  771      679.934       672.84
  772      680.334       673.32
  773      680.734       673.64
  774      681.134       674.22
  775      681.534       675.08
  776      681.934       675.76
  777      682.334       676.26
  778      682.733       676.88
  779      683.133       677.04
  780      683.532       677.46
  781      683.932          678
  782      684.331       677.82
  783       684.73       677.76
  784      685.129       678.44
  785      685.528        678.5
  786      685.927       678.06
  787      686.326       677.94
  788      686.725       677.58
  789      687.123       676.74
  790      687.522        676.3
  791       687.92        676.6
  792      688.319       677.32
  793      688.717       677.82
  794      689.115       677.96
  795      689.513       677.64
  796      689.911       676.74
  797      690.309       675.76
  798      690.706       675.06
  799      691.104       674.52
  800      691.501       674.24
  801      691.899       674.38
  802      692.296       674.08
  803      692.693       673.66
  804       693.09       673.26
  805      693.488       672.58
  806      693.884       671.82
  807      694.281       671.46
  808      694.678       671.18
  809      695.075       671.48
  810      695.471       672.34
  811      695.868       673.28
  812      696.264       674.34
  813       696.66       675.16
  814      697.056       675.54
  815      697.452       675.64
  816      697.848       675.42
  817      698.244       674.72
  818       698.64       674.12
  819      699.035        673.8
  820      699.431       673.44
  821      699.826       673.46
  822      700.222       673.48
  823      700.617        673.2
  824      701.012       672.62
  825      701.407       672.34
  826      701.802       672.28
  827      702.197       673.18
  828      702.592        674.3
  829      702.986       674.94
  830      703.381       675.04
  831      703.775       674.72
  832       704.17       673.86
  833      704.564       673.16
  834      704.958       673.06
  835      705.352       673.48
  836      705.746       673.78
  837       706.14       674.04
  838      706.533       674.42
  839      706.927       674.04
  840      707.321        673.7
  841      707.714       673.86
  842      708.107       673.78
  843      708.501        673.6
  844      708.894       674.18
  845      709.287       674.34
  846       709.68        674.1
  847      710.073        674.1
  848      710.465       673.64
  849      710.858       673.56
  850      711.251       673.36
  851      711.643       673.14
  852      712.035       672.96
  853      712.428        673.4
  854       712.82       673.56
  855      713.212       673.94
  856      713.604       674.28
  857      713.995       674.62
  858      714.387       674.88
  859      714.779       674.96
  860       715.17       675.48
  861      715.562       676.36
  862      715.953       676.44
  863      716.344       676.12
  864      716.735       675.88
  865      717.127       674.94
  866      717.517       673.78
  867      717.908       673.28
  868      718.299       672.86
  869       718.69        672.5
  870       719.08       672.74
  871      719.471       673.12
  872      719.861       673.66
  873      720.251       674.76
  874      720.641       675.64
  875      721.031       675.74
  876      721.421       675.78
  877      721.811        675.8
  878      722.201       675.54
  879       722.59        675.3
  880       722.98       675.46
  881      723.369       675.36
  882      723.759       674.88
  883      724.148       674.26
  884      724.537       674.04
  885      724.926        673.8
  886      725.315       673.58
  887      725.704       673.86
  888      726.092       674.18
  889      726.481       674.18
  890       726.87       674.32
  891      727.258       674.52
  892      727.646       674.56
  893      728.034        674.4
  894      728.423       673.94
  895      728.811       673.46
  896      729.198       672.86
  897      729.586       671.96
  898      729.974       671.22
  899      730.362       671.04
  900      730.749        670.8
  901      731.136        670.7
  902      731.524       671.46
  903      731.911        672.6
  904      732.298       673.26
  905      732.685       673.74
  906      733.072       674.56
  907      733.459       674.92
  908      733.845       674.86
  909      734.232       675.02
  910      734.618        675.3
  911      735.005       675.04
  912      735.391       674.62
  913      735.777       674.34
  914      736.163       674.08
  915      736.549       674.32
  916      736.935       674.36
  917      737.321       673.96
  918      737.706       673.56
  919      738.092       672.78
  920      738.477       671.58
  921      738.863       671.06
  922      739.248       671.18
  923      739.633       671.52
  924      740.018       672.46
  925      740.403        673.4
  926      740.788       674.16
  927      741.173       674.54
  928      741.557       674.46
  929      741.942        674.3
  930      742.326       673.98
  931      742.711       673.92
  932      743.095          674
  933      743.479        674.4
  934      743.863       674.68
  935      744.247       674.62
  936      744.631       673.92
  937      745.015       673.26
  938      745.398       672.52
  939      745.782       671.86
  940      746.165       671.58
  941      746.548       671.56
  942      746.932       671.82
  943      747.315        672.1
  944      747.698       671.92
  945      748.081       671.76
  946      748.463       671.98
  947      748.846       671.96
  948      749.229       671.86
  949      749.611       672.68
  950      749.993       673.66
  951      750.376       674.26
  952      750.758       675.14
  953       751.14       676.18
  954      751.522        676.2
  955      751.904       675.84
  956      752.285       675.44
  957      752.667       674.52
  958      753.049       673.24
  959       753.43       672.44
  960      753.811       672.02
  961      754.193       671.98
  962      754.574       672.62
  963      754.955       673.52
  964      755.336       674.18
  965      755.717       674.72
  966      756.097       675.36
  967      756.478       675.58
  968      756.858       675.96
  969      757.239       676.42
  970      757.619       676.76
  971      757.999        676.2
  972      758.379        675.5
  973      758.759       674.92
  974      759.139          674
  975      759.519       673.12
  976      759.899       672.86
  977      760.278       672.94
  978      760.658       672.86
  979      761.037       673.02
  980      761.417       673.92
  981      761.796       674.72
  982      762.175        674.8
  983      762.554       674.66
  984      762.933       674.94
  985      763.311       674.44
  986       763.69       673.36
  987      764.068       672.74
  988      764.447       672.54
  989      764.825       671.98
  990      765.203       671.62
  991      765.582       672.22
  992       765.96       673.26
  993      766.338       673.94
  994      766.715       674.46
  995      767.093       674.62
  996      767.471       674.18
  997      767.848       673.12
  998      768.226       672.14
  999      768.603       671.42
 1000       768.98          671
 1001      769.357       671.04
 1002      769.734        671.6
 1003      770.111        672.7
 1004      770.488       674.06
 1005      770.864       675.26
 1006      771.241       676.06
 1007      771.617       676.44
 1008      771.994       675.88
 1009       772.37       674.96
 1010      772.746       674.18
 1011      773.122       673.84
 1012      773.498       673.92
 1013      773.874        674.2
 1014       774.25        674.3
 1015      774.625       674.06
 1016      775.001       673.68
 1017      775.376       673.08
 1018      775.751       672.42
 1019      776.127       671.88
 1020      776.502       671.72
 1021      776.877       671.28
 1022      777.252       670.66
 1023      777.626       670.52
 1024      778.001       670.78
 1025      778.375       670.88
 1026       778.75       671.22
 1027      779.124       671.68
 1028      779.499       671.72
 1029      779.873       671.82
 1030      780.247        672.2
 1031      780.621       672.42
 1032      780.994        672.6
 1033      781.368       672.98
 1034      781.742       673.12
 1035      782.115       673.14
 1036      782.489        672.8
 1037      782.862       672.16
 1038      783.235       671.86
 1039      783.608       671.56
 1040      783.981       670.94
 1041      784.354       671.08
 1042      784.727       671.84
 1043        785.1       672.22
 1044      785.472       672.58
 1045      785.845       673.16
 1046      786.217       673.26
 1047      786.589       673.12
 1048      786.961       673.06
 1049      787.333       672.94
 1050      787.705       672.66
 1051      788.077       672.44
 1052      788.449        672.2
 1053       788.82        672.3
 1054      789.192       672.42
 1055      789.563       672.14
 1056      789.934       671.52
 1057      790.306       670.88
 1058      790.677       670.18
 1059      791.048       669.68
 1060      791.419       669.96
 1061      791.789       670.54
 1062       792.16       670.96
 1063       792.53       670.78
 1064      792.901       670.38
 1065      793.271       670.44
 1066      793.641       671.34
 1067      794.012       672.22
 1068      794.382        673.2
 1069      794.751          674
 1070      795.121       674.22
 1071      795.491       673.52
 1072      795.861       673.02
 1073       796.23       673.04
 1074      796.599       672.84
 1075      796.969        672.5
 1076      797.338       672.62
 1077      797.707        672.7
 1078      798.076        672.3
 1079      798.445       672.42
 1080      798.813       672.64
 1081      799.182       672.96
 1082       799.55       673.32
 1083      799.919       673.62
 1084      800.287       673.46
 1085      800.655       673.42
 1086      801.023       673.24
 1087      801.391       672.84
 1088      801.759       672.24
 1089      802.127       671.66
 1090      802.495        671.1
 1091      802.862       670.46
 1092       803.23       670.02
 1093      803.597       669.78
 1094      803.964       669.74
 1095      804.331       669.68
 1096      804.698       669.68
 1097      805.065       669.74
 1098      805.432       670.36
 1099      805.799       671.34
 1100      806.165        672.3
 1101      806.532       673.06
 1102      806.898       673.32
 1103      807.264       673.18
 1104      807.631       673.02
 1105      807.997       672.74
 1106      808.363       672.36
 1107      808.728       672.48
 1108      809.094       672.62
 1109       809.46       672.92
 1110      809.825       673.22
 1111      810.191       673.34
 1112      810.556       673.36
 1113      810.921        673.4
 1114      811.286       673.04
 1115      811.651        672.7
 1116      812.016       672.56
 1117      812.381       671.98
 1118      812.745       671.06
 1119       813.11       670.94
 1120      813.474       671.54
 1121      813.839       671.96
 1122      814.203        672.3
 1123      814.567       672.66
 1124      814.931       672.52
 1125      815.295       672.04
 1126      815.659       671.88
 1127      816.022       672.44
 1128      816.386        673.2
 1129      816.749       673.52
 1130      817.113       673.44
 1131      817.476       673.54
 1132      817.839       673.42
 1133      818.202       673.12
 1134      818.565        672.9
 1135      818.928       672.84
 1136      819.291       672.38
 1137      819.653       671.68
 1138      820.016       671.48
 1139      820.378       671.64
 1140       820.74        671.6
 1141      821.102       671.64
 1142      821.464        672.1
 1143      821.826       672.58
 1144      822.188       673.18
 1145       822.55       673.68
 1146      822.912       674.36
 1147      823.273       674.96
 1148      823.634       674.92
 1149      823.996        674.5
 1150      824.357       674.08
 1151      824.718       673.54
 1152      825.079       672.84
 1153       825.44       672.34
 1154      825.801       671.78
 1155      826.161       671.56
 1156      826.522       671.64
 1157      826.882       672.22
 1158      827.242       673.22
 1159      827.603        674.1
 1160      827.963       674.78
 1161      828.323          675
 1162      828.682       674.36
 1163      829.042       673.54
 1164      829.402       673.32
 1165      829.761          673
 1166      830.121       672.54
 1167       830.48        672.4
 1168      830.839       672.22
 1169      831.198       671.74
 1170      831.557       671.44
 1171      831.916       671.44
 1172      832.275        671.6
 1173      832.634       671.88
 1174      832.992       672.36
 1175      833.351       672.64
 1176      833.709       672.82
 1177      834.067       673.04
 1178      834.425       673.18
 1179      834.783       672.94
 1180      835.141       672.76
 1181      835.499        673.2
 1182      835.857       673.74
 1183      836.214        674.2
 1184      836.572       674.68
 1185      836.929       674.66
 1186      837.286       673.74
 1187      837.644       672.28
 1188      838.001       670.42
 1189      838.357       668.86
 1190      838.714       668.44
 1191      839.071       668.98
 1192      839.428       669.94
 1193      839.784       671.42
 1194       840.14        672.7
 1195      840.497       673.28
 1196      840.853       673.38
 1197      841.209       673.32
 1198      841.565       672.82
 1199       841.92       672.12
 1200      842.276       671.58
 1201      842.632        670.6
 1202      842.987       669.96
 1203      843.343       670.32
 1204      843.698       671.22
 1205      844.053       672.04
 1206      844.408        672.7
 1207      844.763       672.96
 1208      845.118       672.62
 1209      845.472       671.78
 1210      845.827       671.04
 1211      846.181       670.94
 1212      846.536       671.26
 1213       846.89       671.76
 1214      847.244       672.32
 1215      847.598       672.76
 1216      847.952       672.76
 1217      848.306       672.26
 1218       848.66       671.58
 1219      849.013       671.38
 1220      849.367        671.7
 1221       849.72       672.26
 1222      850.073        672.9
 1223      850.427       673.56
 1224       850.78       673.82
 1225      851.133        673.5
 1226      851.485       673.18
 1227      851.838       673.22
 1228      852.191       673.32
 1229      852.543       673.06
 1230      852.896        672.7
 1231      853.248       672.26
 1232        853.6       671.36
 1233      853.952       670.26
 1234      854.304       669.64
 1235      854.656       669.88
 1236      855.007       670.22
 1237      855.359        670.9
 1238       855.71       671.74
 1239      856.062       672.68
 1240      856.413       673.02
 1241      856.764       673.08
 1242      857.115       672.76
 1243      857.466       672.26
 1244      857.817       671.62
 1245      858.168       670.94
 1246      858.518          671
 1247      858.869       671.74
 1248      859.219       672.72
 1249      859.569       673.82
 1250       859.92       675.14
 1251       860.27       675.58
 1252      860.619       675.28
 1253      860.969       674.86
 1254      861.319       674.04
 1255      861.669       672.64
 1256      862.018       671.74
 1257      862.367       671.68
 1258      862.717       671.76
 1259      863.066       672.06
 1260      863.415       672.62
 1261      863.764       673.32
 1262      864.112        673.5
 1263      864.461          673
 1264       864.81       672.56
 1265      865.158       672.26
 1266      865.507       671.72
 1267      865.855       671.04
 1268      866.203        671.2
 1269      866.551       671.48
 1270      866.899       671.48
 1271      867.247       671.38
 1272      867.594       671.76
 1273      867.942       671.98
 1274      868.289       672.36
 1275      868.637          673
 1276      868.984       673.22
 1277      869.331       673.06
 1278      869.678        672.6
 1279      870.025       671.62
 1280      870.372       670.88
 1281      870.718       670.68
 1282      871.065        670.7
 1283      871.411       671.16
 1284      871.758       672.04
 1285      872.104          673
 1286       872.45       673.96
 1287      872.796       674.18
 1288      873.142       673.66
 1289      873.488       673.22
 1290      873.833        672.6
 1291      874.179       671.88
 1292      874.524       671.62
 1293      874.869       671.78
 1294      875.215       671.94
 1295       875.56       672.06
 1296      875.905        672.2
 1297       876.25       672.56
 1298      876.594       672.76
 1299      876.939       672.52
 1300      877.283       672.12
 1301      877.628          672
 1302      877.972       671.64
 1303      878.316       671.36
 1304       878.66       671.64
 1305      879.004        672.3
 1306      879.348       672.52
 1307      879.692        672.7
 1308      880.035       673.04
 1309      880.379       673.02
 1310      880.722        672.8
 1311      881.066       672.08
 1312      881.409       671.32
 1313      881.752       670.52
 1314      882.095       669.84
 1315      882.438        669.6
 1316       882.78       670.44
 1317      883.123       671.52
 1318      883.465        672.3
 1319      883.808       672.74
 1320       884.15       672.68
 1321      884.492       672.26
 1322      884.834       671.88
 1323      885.176       671.78
 1324      885.518       671.72
 1325      885.859       671.42
 1326      886.201       671.48
 1327      886.542       672.02
 1328      886.884       672.68
 1329      887.225       673.06
 1330      887.566        673.3
 1331      887.907       672.96
 1332      888.248       672.46
 1333      888.589       671.96
 1334      888.929       671.88
 1335       889.27       672.14
 1336       889.61        672.6
 1337      889.951       672.74
 1338      890.291       673.04
 1339      890.631       673.44
 1340      890.971       673.96
 1341      891.311       673.96
 1342       891.65       673.48
 1343       891.99       673.12
 1344      892.329       672.56
 1345      892.669       671.86
 1346      893.008        671.8
 1347      893.347       671.96
 1348      893.686       671.86
 1349      894.025       671.88
 1350      894.364       671.46
 1351      894.703        670.9
 1352      895.041          671
 1353       895.38       670.98
 1354      895.718       670.74
 1355      896.056       670.74
 1356      896.395       671.18
 1357      896.733       671.24
 1358      897.071        671.2
 1359      897.408       671.66
 1360      897.746       672.48
 1361      898.084       672.92
 1362      898.421        673.5
 1363      898.758       674.06
 1364      899.095       674.24
 1365      899.433        674.4
 1366       899.77        674.4
 1367      900.106        674.1
 1368      900.443          674
 1369       900.78        673.7
 1370      901.116       673.24
 1371      901.453       673.42
 1372      901.789       673.48
 1373      902.125       672.98
 1374      902.461       672.54
 1375      902.797       672.18
 1376      903.133        671.4
 1377      903.469       670.96
 1378      903.804       670.98
 1379       904.14        671.1
 1380      904.475       670.98
 1381       904.81        670.9
 1382      905.146       670.92
 1383      905.481       671.02
 1384      905.815       671.14
 1385       906.15       671.26
 1386      906.485        671.3
 1387      906.819        671.3
 1388      907.154       671.46
 1389      907.488       671.98
 1390      907.822       672.58
 1391      908.156        672.7
 1392       908.49       672.74
 1393      908.824       672.56
 1394      909.158       671.84
 1395      909.492       671.22
 1396      909.825       671.06
 1397      910.159       671.26
 1398      910.492       671.52
 1399      910.825       671.86
 1400      911.158       672.48
 1401      911.491       673.42
 1402      911.824       673.82
 1403      912.157       673.74
 1404      912.489        673.2
 1405      912.822       672.64
 1406      913.154       671.84
 1407      913.486        670.8
 1408      913.818       670.32
 1409       914.15       670.74
 1410      914.482       670.92
 1411      914.814       670.88
 1412      915.146       671.12
 1413      915.477       671.12
 1414      915.809        670.9
 1415       916.14       670.34
 1416      916.471       669.52
 1417      916.802       668.98
 1418      917.133       668.72
 1419      917.464       668.74
 1420      917.795       669.22
 1421      918.125       670.18
 1422      918.456       670.94
 1423      918.786       671.26
 1424      919.116       671.48
 1425      919.446          672
 1426      919.776       672.46
 1427      920.106        672.6
 1428      920.436       672.92
 1429      920.766        673.2
 1430      921.095        673.2
 1431      921.425       673.14
 1432      921.754        673.2
 1433      922.083       673.68
 1434      922.412       673.92
 1435      922.741          674
 1436       923.07        674.2
 1437      923.399        674.2
 1438      923.727       673.36
 1439      924.056       672.56
 1440      924.384       671.92
 1441      924.713       670.92
 1442      925.041       670.12
 1443      925.369       669.82
 1444      925.697        670.1
 1445      926.024       670.82
 1446      926.352       671.94
 1447       926.68       672.94
 1448      927.007       673.62
 1449      927.334        673.3
 1450      927.662       672.52
 1451      927.989       671.96
 1452      928.316       671.82
 1453      928.643       672.16
 1454      928.969       672.98
 1455      929.296       673.48
 1456      929.622       673.16
 1457      929.949       672.38
 1458      930.275        671.4
 1459      930.601       670.42
 1460      930.927       669.92
 1461      931.253        669.8
 1462      931.579       669.98
 1463      931.905       670.18
 1464       932.23       670.42
 1465      932.556       670.92
 1466      932.881       671.48
 1467      933.206       671.66
 1468      933.531       671.52
 1469      933.856       671.12
 1470      934.181        670.6
 1471      934.506        670.4
 1472       934.83       670.36
 1473      935.155       670.24
 1474      935.479        670.4
 1475      935.803       670.72
 1476      936.128       670.88
 1477      936.452       671.08
 1478      936.775       671.76
 1479      937.099        672.4
 1480      937.423        672.4
 1481      937.746       672.22
 1482       938.07       672.22
 1483      938.393       672.02
 1484      938.716        671.4
 1485      939.039        670.8
 1486      939.362       670.46
 1487      939.685        670.3
 1488      940.008       669.98
 1489      940.331       669.92
 1490      940.653        670.4
 1491      940.975        671.1
 1492      941.298       671.46
 1493       941.62       671.98
 1494      941.942        672.4
 1495      942.264        672.3
 1496      942.585       671.82
 1497      942.907       671.66
 1498      943.229       671.78
 1499       943.55        672.1
 1500      943.871       672.26
 1501      944.192       672.04
 1502      944.513       671.88
 1503      944.834       672.22
 1504      945.155       672.84
 1505      945.476        673.4
 1506      945.796       673.92
 1507      946.117       673.98
 1508      946.437        673.3
 1509      946.757       672.54
 1510      947.078        672.5
 1511      947.398       673.02
 1512      947.717       673.78
 1513      948.037       674.54
 1514      948.357       675.06
 1515      948.676        675.4
 1516      948.996       675.52
 1517      949.315        675.7
 1518      949.634        675.6
 1519      949.953       674.94
 1520      950.272        674.1
 1521      950.591       673.68
 1522      950.909       672.94
 1523      951.228       672.26
 1524      951.546       672.26
 1525      951.865       672.24
 1526      952.183        671.9
 1527      952.501       672.14
 1528      952.819        672.8
 1529      953.137       673.08
 1530      953.454       672.92
 1531      953.772       672.68
 1532      954.089       672.16
 1533      954.407       671.82
 1534      954.724       671.86
 1535      955.041       671.98
 1536      955.358       671.74
 1537      955.675       671.36
 1538      955.992       670.96
 1539      956.308        670.4
 1540      956.625       670.18
 1541      956.941       670.32
 1542      957.257       670.46
 1543      957.574       670.72
 1544       957.89       671.42
 1545      958.206        672.4
 1546      958.521       673.22
 1547      958.837       673.64
 1548      959.152       673.78
 1549      959.468        673.5
 1550      959.783        672.8
 1551      960.098       672.38
 1552      960.413        672.4
 1553      960.728       672.32
 1554      961.043       672.22
 1555      961.358       672.48
 1556      961.672       672.98
 1557      961.987        673.6
 1558      962.301       673.88
 1559      962.615       674.14
 1560       962.93       674.02
 1561      963.244       673.76
 1562      963.557        673.6
 1563      963.871       674.08
 1564      964.185       674.78
 1565      964.498       675.12
 1566      964.812       675.34
 1567      965.125       675.26
 1568      965.438        674.5
 1569      965.751       673.04
 1570      966.064       671.36
 1571      966.377       669.84
 1572      966.689       669.14
 1573      967.002       668.86
 1574      967.314        669.2
 1575      967.626       670.58
 1576      967.939        671.9
 1577      968.251        672.3
 1578      968.563        672.4
 1579      968.874       672.62
 1580      969.186        672.5
 1581      969.498        672.2
 1582      969.809       672.14
 1583       970.12       672.28
 1584      970.431       672.12
 1585      970.743       671.72
 1586      971.053       671.48
 1587      971.364        671.1
 1588      971.675       670.76
 1589      971.986       670.88
 1590      972.296       671.38
 1591      972.606       671.68
 1592      972.917       672.02
 1593      973.227       672.18
 1594      973.537        671.9
 1595      973.847       671.48
 1596      974.156       670.86
 1597      974.466       670.44
 1598      974.775       670.54
 1599      975.085       670.76
 1600      975.394       670.86
 1601      975.703       670.98
 1602      976.012       671.14
 1603      976.321       671.26
 1604       976.63       671.36
 1605      976.938       671.74
 1606      977.247       672.36
 1607      977.555       672.64
 1608      977.863       672.66
 1609      978.172       672.76
 1610       978.48       672.62
 1611      978.787       672.36
 1612      979.095       672.42
 1613      979.403       672.84
 1614       979.71       673.38
 1615      980.018       673.72
 1616      980.325       674.12
 1617      980.632        674.2
 1618      980.939       673.58
 1619      981.246       672.84
 1620      981.553       672.14
 1621       981.86       671.44
 1622      982.166        670.8
 1623      982.473       670.52
 1624      982.779       670.08
 1625      983.085        670.4
 1626      983.391        671.3
 1627      983.697       672.14
 1628      984.003       672.96
 1629      984.309       673.52
 1630      984.614       673.28
 1631       984.92       672.46
 1632      985.225       672.38
 1633       985.53       672.66
 1634      985.835       673.18
 1635       986.14       673.96
 1636      986.445       674.56
 1637       986.75       674.26
 1638      987.054       673.48
 1639      987.359       672.98
 1640      987.663       672.72
 1641      987.967        672.6
 1642      988.271       672.62
 1643      988.575       672.54
 1644      988.879        672.2
 1645      989.183       671.54
 1646      989.487       671.26
 1647       989.79       671.34
 1648      990.093       671.72
 1649      990.397       672.36
 1650        990.7        672.8
 1651      991.003       672.78
 1652      991.306       672.42
 1653      991.608       671.96
 1654      991.911       671.24
 1655      992.213       670.94
 1656      992.516          671
 1657      992.818       671.38
 1658       993.12       672.04
 1659      993.422       673.04
 1660      993.724        673.9
 1661      994.026       674.26
 1662      994.327       674.36
 1663      994.629       674.48
 1664       994.93       674.46
 1665      995.232        675.1
 1666      995.533       676.22
 1667      995.834       676.66
 1668      996.135       676.62
 1669      996.435       676.68
 1670      996.736       676.24
 1671      997.036       675.52
 1672      997.337        675.1
 1673      997.637       674.22
 1674      997.937       672.98
 1675      998.237       671.82
 1676      998.537       671.68
 1677      998.837       672.24
 1678      999.137       673.18
 1679      999.436       674.06
 1680      999.735       674.38
 1681      1000.03        673.9
 1682      1000.33       673.76
 1683      1000.63       673.92
 1684      1000.93       674.14
 1685      1001.23        674.5
 1686      1001.53       674.56
 1687      1001.83       674.02
 1688      1002.13        673.4
 1689      1002.42       673.16
 1690      1002.72       673.06
 1691      1003.02       672.98
 1692      1003.32          673
 1693      1003.62        673.1
 1694      1003.91       672.94
 1695      1004.21       673.12
 1696      1004.51       673.74
 1697      1004.81       674.18
 1698       1005.1       674.08
 1699       1005.4       674.18
 1700       1005.7       674.24
 1701      1005.99       673.68
 1702      1006.29          673
 1703      1006.59        673.1
 1704      1006.88        673.3
 1705      1007.18        673.4
 1706      1007.48       673.82
 1707      1007.77       674.44
 1708      1008.07        674.8
 1709      1008.36       674.74
 1710      1008.66       674.64
 1711      1008.95       674.72
 1712      1009.25       674.82
 1713      1009.55       674.96
 1714      1009.84        675.3
 1715      1010.14       675.22
 1716      1010.43       674.82
 1717      1010.73        674.6
 1718      1011.02       674.22
 1719      1011.31       673.92
 1720      1011.61       673.92
 1721       1011.9       674.06
 1722       1012.2       673.72
 1723      1012.49       672.66
 1724      1012.79        671.4
 1725      1013.08       670.44
 1726      1013.37       669.76
 1727      1013.67       669.62
 1728      1013.96       670.26
 1729      1014.25        671.2
 1730      1014.55       671.84
 1731      1014.84       672.18
 1732      1015.13       672.36
 1733      1015.42        672.5
 1734      1015.72       672.42
 1735      1016.01       672.26
 1736       1016.3       672.58
 1737      1016.59       673.36
 1738      1016.89       674.16
 1739      1017.18       674.86
 1740      1017.47       675.34
 1741      1017.76       675.34
 1742      1018.05        674.7
 1743      1018.35       673.94
 1744      1018.64       673.52
 1745      1018.93        673.7
 1746      1019.22       673.84
 1747      1019.51       673.96
 1748       1019.8       673.74
 1749      1020.09       672.92
 1750      1020.38       671.98
 1751      1020.67       670.84
 1752      1020.96       669.72
 1753      1021.25       669.38
 1754      1021.54       669.42
 1755      1021.83       670.06
 1756      1022.12       671.24
 1757      1022.41       672.38
 1758       1022.7        672.8
 1759      1022.99       672.84
 1760      1023.28        672.3
 1761      1023.57       671.62
 1762      1023.86       671.26
 1763      1024.15       671.28
 1764      1024.44        671.9
 1765      1024.73       672.58
 1766      1025.02       673.02
 1767       1025.3       672.86
 1768      1025.59       672.26
 1769      1025.88       671.34
 1770      1026.17       670.28
 1771      1026.46       669.44
 1772      1026.74       669.34
 1773      1027.03          670
 1774      1027.32       670.42
 1775      1027.61       670.96
 1776      1027.89        671.5
 1777      1028.18       671.92
 1778      1028.47       672.04
 1779      1028.76       672.36
 1780      1029.04       672.46
 1781      1029.33       672.24
 1782      1029.62       671.56
 1783       1029.9       670.94
 1784      1030.19        670.5
 1785      1030.47       670.02
 1786      1030.76        669.7
 1787      1031.05        669.7
 1788      1031.33       669.66
 1789      1031.62       669.64
 1790       1031.9       669.84
 1791      1032.19       670.34
 1792      1032.47       670.74
 1793      1032.76       670.98
 1794      1033.04       671.34
 1795      1033.33        671.7
 1796      1033.61       672.02
 1797       1033.9       672.76
 1798      1034.18       673.62
 1799      1034.47       674.06
 1800      1034.75       673.98
 1801      1035.04       673.74
 1802      1035.32       672.98
 1803       1035.6       672.46
 1804      1035.89       672.28
 1805      1036.17       672.26
 1806      1036.45       672.14
 1807      1036.74       672.26
 1808      1037.02       672.18
 1809       1037.3        671.6
 1810      1037.59        670.9
 1811      1037.87       670.02
 1812      1038.15       669.22
 1813      1038.44       668.92
 1814      1038.72          669
 1815         1039       669.36
 1816      1039.28       670.26
 1817      1039.56        671.4
 1818      1039.85       672.16
 1819      1040.13       672.96
 1820      1040.41       674.06
 1821      1040.69       674.88
 1822      1040.97       674.86
 1823      1041.25        674.3
 1824      1041.54       673.62
 1825      1041.82       673.08
 1826       1042.1       672.78
 1827      1042.38       672.88
 1828      1042.66       673.06
 1829      1042.94       673.16
 1830      1043.22       673.36
 1831       1043.5       673.34
 1832      1043.78       673.44
 1833      1044.06       674.56
 1834      1044.34       675.74
 1835      1044.62        675.8
 1836       1044.9       675.62
 1837      1045.18       675.18
 1838      1045.46       673.54
 1839      1045.74       671.68
 1840      1046.02       670.66
 1841       1046.3       669.92
 1842      1046.58       669.34
 1843      1046.85       669.64
 1844      1047.13       670.28
 1845      1047.41       671.06
 1846      1047.69          672
 1847      1047.97       672.96
 1848      1048.25       673.64
 1849      1048.52       674.42
 1850       1048.8       674.86
 1851      1049.08       674.64
 1852      1049.36       674.36
 1853      1049.63        674.1
 1854      1049.91       673.74
 1855      1050.19       673.06
 1856      1050.47       672.86
 1857      1050.74       673.24
 1858      1051.02       673.72
 1859       1051.3       673.84
 1860      1051.57        673.9
 1861      1051.85        673.9
 1862      1052.13       673.02
 1863       1052.4       671.58
 1864      1052.68       670.36
 1865      1052.95        669.8
 1866      1053.23       669.48
 1867      1053.51       669.44
 1868      1053.78       669.72
 1869      1054.06       670.18
 1870      1054.33       670.22
 1871      1054.61       670.06
 1872      1054.88       670.02
 1873      1055.16       669.86
 1874      1055.43       669.64
 1875      1055.71        669.2
 1876      1055.98       668.92
 1877      1056.25       669.14
 1878      1056.53       669.74
 1879       1056.8       670.02
 1880      1057.08       670.68
 1881      1057.35       671.74
 1882      1057.62       672.12
 1883       1057.9       672.26
 1884      1058.17        672.4
 1885      1058.45       672.12
 1886      1058.72       671.18
 1887      1058.99       670.56
 1888      1059.26       670.04
 1889      1059.54       669.58
 1890      1059.81       669.18
 1891      1060.08        668.4
 1892      1060.35       667.48
 1893      1060.63       667.62
 1894       1060.9       668.46
 1895      1061.17        669.3
 1896      1061.44       670.66
 1897      1061.71       671.76
 1898      1061.99        671.6
 1899      1062.26        671.2
 1900      1062.53       671.18
 1901       1062.8       670.82
 1902      1063.07       670.74
 1903      1063.34       670.76
 1904      1063.61       670.48
 1905      1063.88       670.06
 1906      1064.15       670.24
 1907      1064.42       670.18
 1908       1064.7       670.24
 1909      1064.97       670.68
 1910      1065.24       671.58
 1911      1065.51       672.22
 1912      1065.78       672.74
 1913      1066.04        672.7
 1914      1066.31       671.88
 1915      1066.58       670.46
 1916      1066.85       669.16
 1917      1067.12       668.48
 1918      1067.39        668.4
 1919      1067.66       668.84
 1920      1067.93       669.58
 1921       1068.2       669.96
 1922      1068.47       670.02
 1923      1068.73       670.36
 1924         1069       670.58
 1925      1069.27       670.56
 1926      1069.54       670.84
 1927      1069.81        671.4
 1928      1070.07       671.44
 1929      1070.34       671.84
 1930      1070.61       672.78
 1931      1070.88       673.62
 1932      1071.14       674.06
 1933      1071.41       674.54
 1934      1071.68       675.04
 1935      1071.94          675
 1936      1072.21       674.78
 1937      1072.48       674.36
 1938      1072.74       673.72
 1939      1073.01        672.7
 1940      1073.28       671.76
 1941      1073.54       670.72
 1942      1073.81       669.92
 1943      1074.07       669.52
 1944      1074.34       669.34
 1945       1074.6       669.54
 1946      1074.87       670.58
 1947      1075.13        671.6
 1948       1075.4       672.28
 1949      1075.66       672.78
 1950      1075.93       672.92
 1951      1076.19       672.46
 1952      1076.46       672.08
 1953      1076.72        671.9
 1954      1076.99       672.02
 1955      1077.25       672.48
 1956      1077.52       673.26
 1957      1077.78       674.18
 1958      1078.04       674.64
 1959      1078.31       674.36
 1960      1078.57        673.8
 1961      1078.83       672.96
 1962       1079.1       672.22
 1963      1079.36       672.12
 1964      1079.62       672.34
 1965      1079.89       672.36
 1966      1080.15       672.62
 1967      1080.41       672.66
 1968      1080.67       672.38
 1969      1080.94       672.48
 1970       1081.2       672.66
 1971      1081.46       672.44
 1972      1081.72       672.52
 1973      1081.98       673.08
 1974      1082.24       673.22
 1975      1082.51       673.38
 1976      1082.77       673.56
 1977      1083.03       673.24
 1978      1083.29       672.46
 1979      1083.55        671.6
 1980      1083.81       670.82
 1981      1084.07        670.7
 1982      1084.33       670.56
 1983      1084.59        670.2
 1984      1084.85       670.02
 1985      1085.11       669.66
 1986      1085.37       668.98
 1987      1085.63       668.72
 1988      1085.89       668.48
 1989      1086.15       668.38
 1990      1086.41       669.06
 1991      1086.67       669.54
 1992      1086.93       669.96
 1993      1087.19       671.08
 1994      1087.45       672.42
 1995      1087.71       673.54
 1996      1087.97       674.84
 1997      1088.23        675.5
 1998      1088.48       675.24
 1999      1088.74        674.7
 2000         1089        673.8
 2001      1089.26       672.58
 2002      1089.52        671.9
 2003      1089.77       671.58
 2004      1090.03       671.48
 2005      1090.29        671.5
 2006      1090.55       671.72
 2007       1090.8       672.06
 2008      1091.06       672.28
 2009      1091.32          672
 2010      1091.57       671.66
 2011      1091.83       671.46
 2012      1092.09        671.2
 2013      1092.34       671.02
 2014       1092.6       671.26
 2015      1092.86       671.66
 2016      1093.11        671.7
 2017      1093.37       671.08
 2018      1093.62       670.88
 2019      1093.88        670.9
 2020      1094.13       670.74
 2021      1094.39        670.9
 2022      1094.65       671.84
 2023       1094.9       672.38
 2024      1095.16        672.3
 2025      1095.41       672.08
 2026      1095.66       671.84
 2027      1095.92        671.4
 2028      1096.17        671.2
 2029      1096.43        671.4
 2030      1096.68       672.06
 2031      1096.94       672.98
 2032      1097.19        673.6
 2033      1097.44       673.88
 2034       1097.7       674.36
 2035      1097.95       674.76
 2036       1098.2       674.38
 2037      1098.46        673.8
 2038      1098.71       673.48
 2039      1098.96        673.6
 2040      1099.22       673.58
 2041      1099.47        673.2
 2042      1099.72       673.18
 2043      1099.97       673.46
 2044      1100.23       672.76
 2045      1100.48        672.5
 2046      1100.73      672.575
 2047      1100.98      672.933
